ECG,RSP
0.000763,5.9961
-0.00061,5.9906
0.000763,5.9909
0.002289,5.9857
0.005341,5.9818
0.008087,5.9814
0.010376,5.976
0.011444,5.9723
0.010834,5.9717
0.010376,5.9662
0.01297,5.9616
0.013123,5.9619
0.01297,5.9564
0.01297,5.9515
0.010376,5.9521
0.017853,5.9467
0.027618,5.9421
0.057831,5.9412
0.056763,5.9375
0.053864,5.9329
0.055847,5.9329
0.009613,5.9277
-0.014191,5.9253
-0.013885,5.9229
-0.004272,5.918
-0.009003,5.9186
-0.015259,5.9131
-0.014954,5.9134
-0.011597,5.9085
-0.00885,5.9088
-0.006256,5.9033
-0.003967,5.9036
-0.003967,5.8984
-0.003815,5.8939
-0.046844,5.8932
-0.066528,5.889
0.066071,5.8884
0.545197,5.8859
1.094513,5.8841
0.451508,5.8829
-0.21698,5.8789
-0.458374,5.8783
-0.369263,5.8737
-0.194397,5.8734
-0.108185,5.8691
-0.077515,5.8688
-0.058899,5.867
-0.046082,5.8643
-0.033569,5.8646
-0.023499,5.8591
-0.013428,5.8588
-0.002747,5.8545
0.007935,5.8536
0.019073,5.8542
0.027618,5.8496
0.037231,5.8502
0.048523,5.8502
0.063171,5.8447
0.078735,5.8441
0.099487,5.8401
0.122833,5.8392
0.144501,5.8353
0.160828,5.835
0.174103,5.8301
0.176544,5.8252
0.158081,5.8206
0.109558,5.8154
0.029449,5.8105
-0.055237,5.8008
-0.127411,5.7962
-0.174103,5.791
-0.202026,5.7816
-0.210724,5.7773
-0.209351,5.7666
-0.197296,5.762
-0.177612,5.7523
-0.161896,5.7474
-0.146027,5.7373
-0.128784,5.7327
-0.113983,5.7227
-0.097198,5.7178
-0.083466,5.7123
-0.070343,5.7031
-0.059052,5.6985
-0.051727,5.6937
-0.04303,5.6882
-0.040741,5.6836
-0.035553,5.679
-0.030823,5.6784
-0.028534,5.6735
-0.026093,5.6686
-0.023804,5.6683
-0.02121,5.6686
-0.02121,5.6647
-0.021362,5.6644
-0.018616,5.6644
-0.018616,5.6641
-0.018616,5.6693
-0.013885,5.6693
-0.013885,5.6741
-0.011597,5.679
-0.009308,5.6827
-0.011444,5.6888
-0.009003,5.6943
-0.003662,5.7016
-0.003815,5.7086
-0.001526,5.7178
0.000916,5.7275
0.001068,5.7376
0.003662,5.7477
0.00061,5.7605
0.005951,5.7718
0.005646,5.7855
0.003204,5.7962
0.005798,5.8105
0.00351,5.8246
0.007629,5.8371
0.010529,5.8502
0.010681,5.8643
0.011902,5.8789
0.013123,5.8932
0.010834,5.9103
0.012817,5.9247
0.00824,5.9418
0.010681,5.9564
0.007172,5.9717
0.008087,5.9863
0.015564,6.0013
0.028839,6.015
0.052948,6.0297
0.042419,6.0446
0.051422,6.0596
0.036469,6.0764
-0.005951,6.0907
-0.021057,6.1053
-0.007629,6.1206
-0.00885,6.1346
-0.022278,6.1487
-0.026093,6.1646
-0.018768,6.1768
-0.018768,6.1908
-0.014038,6.2054
-0.011749,6.2207
-0.011292,6.2323
-0.011444,6.2451
-0.024414,6.2585
-0.079803,6.2689
-0.04715,6.2836
0.181274,6.2936
0.864868,6.3028
0.850372,6.3162
0.198669,6.3272
-0.297241,6.3373
-0.449982,6.3474
-0.338898,6.3574
-0.183258,6.3663
-0.110474,6.3736
-0.075378,6.3806
-0.052643,6.3913
-0.039368,6.4014
-0.031738,6.4102
-0.02243,6.4157
-0.013885,6.4258
-0.006256,6.4346
0.003662,6.4395
0.013275,6.4496
0.020447,6.456
0.030365,6.4645
0.037231,6.4688
0.050964,6.4795
0.06546,6.4835
0.084991,6.4908
0.106812,6.4987
0.127563,6.503
0.138855,6.5073
0.1474,6.5137
0.149841,6.5176
0.132751,6.5231
0.084076,6.528
0.015717,6.5302
-0.057678,6.5326
-0.115051,6.5381
-0.158386,6.5414
-0.17746,6.543
-0.178986,6.5472
-0.171661,6.5475
-0.159454,6.5527
-0.141754,6.553
-0.125275,6.5567
-0.110321,6.5573
-0.096893,6.557
-0.079956,6.5622
-0.070496,6.5622
-0.065155,6.5619
-0.058899,6.5619
-0.049133,6.5628
-0.040588,6.5665
-0.036774,6.5671
-0.033112,6.5662
-0.026093,6.5668
-0.021362,6.5674
-0.021515,6.5625
-0.021057,6.5625
-0.018616,6.5616
-0.016174,6.5616
-0.016174,6.5573
-0.010529,6.557
-0.011139,6.5576
-0.006409,6.5549
-0.006714,6.5527
-0.006409,6.5527
-0.00412,6.5479
-0.003662,6.5482
-0.001526,6.5427
0.000916,6.543
0.005646,6.5424
0.005798,6.5381
0.005493,6.5384
0.005798,6.5323
0.005646,6.5329
0.008087,6.5286
0.010529,6.5277
0.020142,6.5274
0.033569,6.5225
0.064087,6.5225
0.05661,6.5186
0.061035,6.5143
0.050659,6.5143
0.004883,6.5085
-0.016479,6.5088
-0.011139,6.5033
-0.003967,6.4993
-0.011444,6.4938
-0.016022,6.4896
-0.016174,6.4883
-0.013885,6.4835
-0.007172,6.4786
-0.006104,6.474
-0.006561,6.4691
-0.001068,6.4642
0.005798,6.4594
-0.018616,6.4551
-0.065002,6.4493
0.006256,6.4453
0.343018,6.4404
1.049652,6.4346
0.710144,6.4301
-0.008087,6.4249
-0.410004,6.42
-0.415649,6.4108
-0.249481,6.4056
-0.128021,6.4014
-0.080109,6.3956
-0.062408,6.3864
-0.045624,6.3815
-0.033417,6.373
-0.019073,6.3672
-0.011444,6.3571
-0.004425,6.3522
0.003357,6.3419
0.012054,6.3361
0.020599,6.3284
0.031738,6.3184
0.041962,6.308
0.059357,6.3013
0.073547,6.2943
0.095825,6.2836
0.117798,6.2744
0.138855,6.2625
0.157166,6.2503
0.170593,6.2399
0.178223,6.2308
0.166779,6.2158
0.124664,6.2036
0.054626,6.1911
-0.035706,6.1771
-0.117188,6.1624
-0.17395,6.1508
-0.206757,6.1377
-0.218964,6.1234
-0.21698,6.1084
-0.202179,6.0938
-0.187531,6.0791
-0.171509,6.0669
-0.154114,6.0547
-0.137482,6.0391
-0.12146,6.0251
-0.10437,6.0114
-0.08606,6.0013
-0.074921,5.9863
-0.06546,5.9738
-0.055237,5.9616
-0.045471,5.9497
-0.038452,5.9372
-0.030975,5.9271
-0.02594,5.9177
-0.026245,5.9085
-0.023804,5.8981
-0.023651,5.8884
-0.023956,5.8789
-0.023499,5.8691
-0.023651,5.8594
-0.018768,5.8548
-0.018616,5.8447
-0.016174,5.8398
-0.013885,5.8328
-0.01236,5.8252
-0.008698,5.8197
-0.006409,5.8151
-0.00412,5.8105
-0.001526,5.8057
0.00351,5.8011
0.000763,5.7959
0.001068,5.7953
0.004578,5.7913
0.005493,5.7864
0.005646,5.7858
0.003357,5.7812
0.005493,5.7812
0.007782,5.7761
0.007935,5.7764
0.008545,5.7721
0.010834,5.7718
0.00824,5.7718
0.00946,5.7721
0.00824,5.7715
0.005646,5.7666
0.010986,5.7666
0.016174,5.7666
0.045319,5.7669
0.063782,5.7672
0.057068,5.7663
0.064392,5.7657
0.031738,5.7669
-0.002899,5.7666
-0.018921,5.766
-0.009155,5.7669
-0.010223,5.7715
-0.021057,5.7712
-0.021057,5.7715
-0.018311,5.7715
-0.016327,5.7718
-0.011749,5.7715
-0.010986,5.7715
-0.004272,5.7761
-0.001526,5.777
-0.012512,5.7767
-0.067444,5.7764
-0.022888,5.7764
0.251465,5.7767
0.959473,5.7812
0.818024,5.7812
0.051422,5.7806
-0.404205,5.7809
-0.430298,5.7806
-0.270386,5.7852
-0.136108,5.7858
-0.08606,5.7861
-0.06134,5.7861
-0.045471,5.791
-0.033569,5.7904
-0.02121,5.7904
-0.014191,5.7913
-0.006714,5.7956
0.001984,5.7956
0.008087,5.7962
0.015869,5.8005
0.028992,5.8008
0.042114,5.8008
0.055389,5.8057
0.066528,5.8051
0.076294,5.8051
0.095825,5.8109
0.119019,5.8102
0.138702,5.8102
0.15686,5.8102
0.15976,5.8157
0.155029,5.8154
0.133972,5.8151
0.068359,5.8215
-0.009918,5.8197
-0.087128,5.8203
-0.151672,5.8252
-0.191345,5.8249
-0.202026,5.8304
-0.202484,5.8304
-0.197449,5.835
-0.190735,5.834
-0.170746,5.8401
-0.147247,5.845
-0.138855,5.8484
-0.116882,5.8496
-0.104218,5.8542
-0.094604,5.8597
-0.076294,5.8643
-0.058899,5.8728
-0.055237,5.8786
-0.045624,5.8838
-0.045624,5.8881
-0.037994,5.8984
-0.027313,5.9036
-0.023651,5.9116
-0.025787,5.918
-0.026093,5.9268
-0.014191,5.9366
-0.016174,5.9421
-0.018921,5.9521
-0.028381,5.9625
-0.020905,5.9756
-0.021057,5.9863
-0.013733,5.9964
-0.008698,6.0086
-0.006409,6.0199
-0.011292,6.0345
-0.003815,6.0449
0.004425,6.0553
0.013275,6.0742
0.000916,6.0889
-0.002899,6.1035
-0.021057,6.1179
-0.012817,6.1316
0.015106,6.1453
0.013275,6.1594
0.017548,6.1725
0.013123,6.1859
0.059357,6.2006
0.003662,6.2158
0.006866,6.2299
0.032654,6.2445
0.035248,6.2585
0.050507,6.2738
0.048218,6.2836
-0.018616,6.2988
-0.028687,6.311
-0.025787,6.3174
-0.022278,6.3376
-0.012817,6.3513
-0.013428,6.3623
-0.031128,6.3754
-0.026245,6.3861
-0.016174,6.3959
-0.024872,6.4105
0.000763,6.4212
-0.000458,6.4307
-0.003967,6.4441
-0.056152,6.4548
-0.083313,6.4648
0.062714,6.4737
0.570221,6.4832
0.975342,6.4984
0.415344,6.5079
-0.142212,6.5176
-0.436249,6.5283
-0.397034,6.5372
-0.233917,6.5469
-0.116577,6.5567
-0.092468,6.5659
-0.065308,6.5738
-0.054169,6.5848
-0.024719,6.5921
-0.009308,6.6006
-0.006561,6.6113
0.006714,6.6211
0.015106,6.6302
0.022888,6.6409
0.030212,6.6495
0.034943,6.6592
0.041199,6.6693
0.056305,6.6797
0.063934,6.6861
0.076447,6.6937
0.090942,6.7035
0.106659,6.7133
0.117798,6.7209
0.122833,6.7279
0.122986,6.7377
0.114288,6.7429
0.077667,6.7526
0.010681,6.7596
-0.062866,6.7667
-0.122375,6.7737
-0.157776,6.781
-0.175323,6.7868
-0.177765,6.7963
-0.170288,6.8011
-0.156097,6.8103
-0.142365,6.8149
-0.123901,6.821
-0.109406,6.8301
-0.094452,6.8344
-0.07843,6.8402
-0.061798,6.8497
-0.054321,6.8542
-0.045624,6.8597
-0.036011,6.8643
-0.03067,6.8643
-0.021362,6.8652
-0.016327,6.8646
-0.013733,6.8643
-0.011444,6.8646
-0.004883,6.8646
-0.001831,6.8646
-0.001373,6.8646
0.000305,6.8646
0.003357,6.8649
0.005798,6.8643
0.008087,6.8637
0.010376,6.9131
0.003204,6.918
0.00351,6.9235
0.005951,6.9281
0.005341,6.9327
0.005646,6.9373
0.008087,6.9424
0.015869,6.9467
0.026855,6.9528
0.053101,6.9568
0.052032,6.962
0.053101,6.9666
0.055847,6.9717
0.012054,6.9763
-0.013885,6.9815
-0.011444,6.9867
-0.001373,6.9861
-0.011292,6.9919
-0.016327,6.9958
-0.013428,7.0013
-0.011139,7.0032
-0.004272,7.0062
-0.001678,7.0105
-0.001678,7.0151
0.000458,7.0166
0.000763,7.0209
-0.04303,7.0206
-0.061646,7.0255
0.063171,7.03
0.485382,7.0303
1.040344,7.0361
0.547791,7.0355
-0.061798,7.0407
-0.403137,7.0401
-0.394745,7.0447
-0.241089,7.0447
-0.133057,7.0499
-0.086365,7.0502
-0.062561,7.0547
-0.046692,7.0547
-0.035706,7.059
-0.028992,7.0593
-0.016479,7.0645
-0.006409,7.0645
-0.001678,7.0645
0.003357,7.0691
0.013123,7.0694
0.026398,7.0697
0.037689,7.0691
0.049286,7.0691
0.06424,7.0697
0.083618,7.0688
0.106812,7.0691
0.129395,7.0691
0.144501,7.0691
0.152283,7.0648
0.149841,7.0645
0.139008,7.0599
0.102386,7.0541
0.032196,7.0551
-0.048828,7.0502
-0.11261,7.045
-0.152283,7.0404
-0.176544,7.0319
-0.185394,7.0258
-0.180359,7.0206
-0.16861,7.0111
-0.153198,7.0062
-0.136108,6.9971
-0.119019,6.9867
-0.103149,6.9772
-0.089874,6.9702
-0.073853,6.9601
-0.063019,6.9504
-0.055389,6.9385
-0.048065,6.9275
-0.038605,6.9186
-0.035706,6.9086
-0.033112,6.8945
-0.026245,6.8848
-0.02121,6.8744
-0.021362,6.8604
-0.023956,6.8506
-0.02121,6.835
-0.021057,6.8253
-0.016327,6.8106
-0.018768,6.7969
-0.010986,6.7871
-0.011597,6.7712
-0.011139,6.7575
-0.009308,6.7438
-0.006561,6.7334
-0.003815,6.7188
-0.001221,6.7032
0.000763,6.6888
0.000916,6.6736
0.000916,6.6623
0.000916,6.6504
0.001068,6.6351
0.010681,6.6211
0.021973,6.6061
0.053864,6.5918
0.056763,6.5811
0.057068,6.5671
0.050812,6.553
0.007019,6.5427
-0.018311,6.5283
-0.019226,6.5143
-0.006561,6.5039
-0.013733,6.4893
-0.023651,6.4789
-0.021515,6.4642
-0.012665,6.4548
-0.006561,6.4404
-0.00412,6.4301
0.000763,6.416
0.00351,6.4059
0.001068,6.3959
-0.046387,6.3837
-0.046997,6.3715
0.122833,6.3617
0.665436,6.3525
1.094208,6.3422
0.381165,6.3327
-0.254669,6.3229
-0.463562,6.3135
-0.35614,6.3034
-0.180969,6.2939
-0.105896,6.2833
-0.038757,6.2735
-0.029297,6.264
-0.063477,6.2543
-0.080109,6.2448
-0.049591,6.235
-0.012665,6.2256
-0.006561,6.2161
0.064545,6.2079
0.049896,6.2009
0.057831,6.1908
0.013275,6.1816
0.032349,6.1719
0.079498,6.1621
0.106964,6.152
0.114136,6.1426
0.16449,6.1328
0.133057,6.1185
0.110474,6.1081
0.13855,6.0931
0.167847,6.0815
0.136566,6.069
0.110931,6.0547
0.057068,6.0397
-0.111847,6.0248
-0.177612,6.0104
-0.196838,5.9961
-0.230103,5.9821
-0.215759,5.9659
-0.16449,5.9521
-0.151672,5.9369
-0.214386,5.9204
-0.185089,5.9042
-0.145111,5.8893
-0.11673,5.8737
-0.100555,5.8594
-0.086975,5.845
-0.079803,5.8298
-0.06546,5.8154
-0.050659,5.8002
-0.045776,5.7864
-0.040588,5.7718
-0.035858,5.7568
-0.030823,5.7449
-0.033264,5.733
-0.028229,5.7181
-0.026398,5.7083
-0.023651,5.6964
-0.020905,5.6839
-0.018616,5.6741
-0.023651,5.6647
-0.023956,5.6503
-0.018616,5.64
-0.018616,5.6299
-0.014801,5.6195
-0.011292,5.6107
-0.003967,5.5991
-0.00885,5.5865
-0.008698,5.5768
-0.006409,5.5673
-0.002289,5.5573
-0.003967,5.5466
-0.006561,5.5374
-0.003815,5.5273
-0.000458,5.513
0.003357,5.5035
0.005798,5.4938
0.003204,5.4837
0.003357,5.4742
0.005646,5.4636
0.008392,5.4544
0.010681,5.4446
0.010681,5.4349
0.01297,5.4245
0.020599,5.4156
0.032196,5.4102
0.066681,5.4007
0.061798,5.3903
0.067596,5.3864
0.067749,5.3763
0.014648,5.3717
-0.01358,5.3619
-0.016479,5.3564
-0.009003,5.3491
-0.014038,5.3424
-0.019836,5.3375
-0.019836,5.3323
-0.011444,5.3278
-0.00885,5.3223
-0.003662,5.318
-0.001526,5.3131
-0.001221,5.3088
-0.007629,5.3079
-0.066223,5.3036
-0.053558,5.2985
0.163727,5.2985
0.798035,5.2933
1.00769,5.2939
0.217133,5.2884
-0.358124,5.2884
-0.451813,5.2881
-0.303345,5.2835
-0.153656,5.2838
-0.100555,5.2841
-0.077667,5.2835
-0.059204,5.2786
-0.045624,5.2783
-0.033264,5.2789
-0.022125,5.2786
-0.009003,5.2786
0.003357,5.2786
0.01297,5.2835
0.022736,5.2838
0.034943,5.2835
0.044861,5.2832
0.055847,5.2835
0.070496,5.2835
0.08728,5.2838
0.105133,5.2835
0.125275,5.2841
0.143585,5.2838
0.159149,5.278
0.16922,5.2789
0.169067,5.2734
0.146027,5.2689
0.085449,5.2637
0.002594,5.2594
-0.080719,5.2493
-0.144501,5.2441
-0.183716,5.2347
-0.204315,5.2295
-0.207062,5.22
-0.199738,5.2109
-0.184937,5.2048
-0.168457,5.1959
-0.151215,5.1852
-0.13382,5.1782
-0.120239,5.1709
-0.106964,5.1614
-0.091248,5.1569
-0.078735,5.1468
-0.067444,5.1419
-0.057983,5.1321
-0.052795,5.1279
-0.046082,5.1221
-0.0383,5.1151
-0.033417,5.1083
-0.028534,5.1028
-0.028534,5.0983
-0.028839,5.0958
-0.026093,5.0931
-0.021515,5.0876
-0.018768,5.0839
-0.018921,5.0836
-0.016174,5.079
-0.013733,5.0787
-0.011597,5.0745
-0.009155,5.0748
-0.006866,5.0745
-0.006561,5.0696
-0.001984,5.0693
0.000458,5.0699
0.00351,5.0696
0.005798,5.0693
0.005646,5.0696
0.007782,5.0693
-0.001068,5.0742
0.003357,5.0742
0.003204,5.0748
0.00946,5.079
0.013275,5.079
0.008545,5.0836
0.005493,5.0836
0.010681,5.0879
0.010681,5.0885
0.011902,5.0931
0.01297,5.098
0.018158,5.098
0.031281,5.1028
0.060272,5.1077
0.056458,5.1114
0.059052,5.1126
0.058136,5.1172
0.012054,5.1233
-0.011292,5.1273
-0.011597,5.1279
-0.00412,5.1324
-0.011597,5.137
-0.020905,5.1416
-0.021057,5.1465
-0.016174,5.1471
-0.016174,5.1514
-0.011444,5.1562
-0.006409,5.1614
-0.009003,5.1666
-0.019989,5.1669
-0.081482,5.1715
-0.057068,5.1761
0.202332,5.1807
0.919189,5.1859
0.895081,5.191
0.126343,5.1953
-0.377045,5.2008
-0.450745,5.2054
-0.306091,5.2103
-0.160828,5.2155
-0.104675,5.2231
-0.077515,5.2301
-0.057983,5.235
-0.044403,5.2396
-0.031128,5.2451
-0.023499,5.2496
-0.018616,5.2585
-0.004883,5.264
0.005493,5.2689
0.015259,5.2786
0.022736,5.2832
0.031586,5.2933
0.040894,5.2979
0.052948,5.3082
0.070343,5.3131
0.089569,5.3229
0.1091,5.3278
0.127411,5.3372
0.142212,5.3418
0.154572,5.3525
0.154877,5.3574
0.131683,5.3668
0.075073,5.3717
0.000153,5.3799
-0.070953,5.3864
-0.132294,5.3952
-0.167999,5.4001
-0.182648,5.4108
-0.180511,5.4175
-0.172729,5.4248
-0.161896,5.4352
-0.147247,5.4446
-0.1297,5.455
-0.114441,5.4642
-0.102844,5.4742
-0.088501,5.4837
-0.077515,5.4959
-0.067596,5.5084
-0.062714,5.5179
-0.052948,5.5301
-0.04364,5.5426
-0.039368,5.5573
-0.033569,5.5658
-0.02594,5.5814
-0.023804,5.5951
-0.021362,5.6088
-0.018921,5.6204
-0.020752,5.6351
-0.018768,5.6485
-0.018616,5.6641
-0.018616,5.6781
-0.014038,5.6934
-0.013885,5.7083
-0.013885,5.7233
-0.005188,5.7373
-0.006409,5.7547
-0.00412,5.769
-0.003967,5.7855
-0.001678,5.8002
-0.001373,5.8151
0.000763,5.8301
0.001068,5.8441
0.000763,5.8588
0.00824,5.8743
0.010681,5.8881
0.015564,5.903
0.028839,5.9183
0.052032,5.9326
0.04715,5.9476
0.061798,5.9616
0.045776,5.9766
0.005798,5.9909
-0.016327,6.0062
-0.010986,6.0205
-0.011749,6.0345
-0.011444,6.0443
-0.011444,6.0596
-0.010986,6.0739
-0.011139,6.0883
-0.011444,6.0983
-0.011444,6.1133
-0.011139,6.1261
-0.011444,6.1374
-0.011444,6.152
-0.011444,6.1621
-0.011597,6.1716
-0.102844,6.1865
0.511322,6.1966
0.617523,6.2054
-0.00824,6.2155
-0.507507,6.2256
-0.6633,6.2354
-0.546722,6.2442
-0.365448,6.2549
-0.267181,6.2631
-0.223083,6.2698
-0.186005,6.2784
-0.154572,6.2839
-0.148621,6.2885
-0.106964,6.2939
-0.101929,6.3016
-0.066376,6.3028
-0.063019,6.308
-0.034332,6.3138
-0.033417,6.3184
-0.00885,6.3181
-0.009003,6.3208
-0.009003,6.3235
-0.009003,6.3229
-0.009003,6.3232
-0.009003,6.3232
-0.009155,6.3181
-0.009155,6.3181
-0.009003,6.3129
-0.009003,6.3086
-0.009003,6.3034
-0.009003,6.2991
-0.008698,6.2888
-0.009308,6.2793
-0.008698,6.2744
-0.009155,6.2619
-0.00885,6.25
-0.00885,6.2408
-0.00885,6.2274
-0.00885,6.2155
0.046844,6.2012
0.283813,6.1887
0.298767,6.1774
0.280762,6.1624
0.26123,6.1478
0.241241,6.1322
0.220795,6.1151
0.199127,6.0992
0.179901,6.084
0.164795,6.069
0.147095,6.055
0.130005,6.0361
0.112915,6.0208
0.098572,6.0056
0.086212,5.9912
0.077362,5.9738
0.067139,5.957
0.059052,5.9421
0.048218,5.9277
0.039368,5.9131
0.035095,5.8984
0.030518,5.8835
0.02533,5.8691
0.022736,5.8542
0.023041,5.8401
0.020294,5.8252
0.0177,5.8105
0.01297,5.798
0.009155,5.7861
0.008392,5.7724
0.005798,5.7617
0.003204,5.7471
0.003357,5.737
0.001678,5.7278
0.000916,5.7129
0.000763,5.7028
0.000916,5.6934
0.000763,5.6796
-0.001678,5.6693
-0.003967,5.6595
0.000916,5.6497
0.007019,5.64
0.020142,5.6274
0.049133,5.6177
0.041046,5.6064
0.050659,5.5981
0.031586,5.5881
-0.010986,5.5814
-0.031128,5.5704
-0.02594,5.5615
-0.02121,5.5518
-0.030975,5.5466
-0.038452,5.5374
-0.035858,5.5276
-0.033112,5.5228
-0.030975,5.5139
-0.028229,5.5078
-0.023193,5.5032
-0.021057,5.4932
-0.034485,5.4892
-0.089722,5.4837
-0.059662,5.4791
0.198517,5.4694
0.89859,5.4639
0.895538,5.4593
0.119324,5.4538
-0.388184,5.4495
-0.444641,5.4446
-0.294647,5.4395
-0.155182,5.4373
-0.10437,5.4349
-0.076141,5.43
-0.058899,5.4251
-0.044403,5.4196
-0.036163,5.4199
-0.02594,5.4156
-0.016479,5.4105
-0.006256,5.4105
0.005798,5.4056
0.015717,5.401
0.029907,5.4007
0.039825,5.3958
0.049438,5.3934
0.062561,5.3912
0.07782,5.3857
0.095825,5.3812
0.11673,5.3717
0.139923,5.3665
0.15686,5.3558
0.164642,5.3473
0.16449,5.3375
0.136261,5.3275
0.069122,5.3131
-0.016022,5.3027
-0.100098,5.2902
-0.161438,5.278
-0.193787,5.2649
-0.206757,5.2545
-0.209503,5.2399
-0.198517,5.2301
-0.180206,5.2158
-0.163269,5.2048
-0.146027,5.1907
-0.128937,5.1816
-0.119019,5.1666
-0.105286,5.1566
-0.090637,5.1468
-0.075378,5.1373
-0.062714,5.1273
-0.053253,5.1178
-0.046844,5.108
-0.040894,5.098
-0.035706,5.0931
-0.030975,5.0839
-0.026245,5.079
-0.026093,5.0742
-0.026093,5.0665
-0.023651,5.0607
-0.023651,5.0571
-0.023804,5.0546
-0.020905,5.0504
-0.017395,5.0455
-0.013885,5.0446
-0.011444,5.04
-0.010071,5.0403
-0.009003,5.0406
-0.00885,5.0354
-0.006561,5.0351
-0.003967,5.0354
-0.001678,5.0354
-0.001678,5.0403
-0.001373,5.04
0.00351,5.0403
0.003357,5.0446
0.003204,5.0452
0.003357,5.0455
0.005798,5.0507
0.007935,5.0522
0.00351,5.0549
0.005646,5.0595
0.008392,5.0592
0.013275,5.065
0.015259,5.0693
0.013123,5.0696
0.015564,5.0742
0.013123,5.079
0.015564,5.0836
0.015411,5.0836
0.021667,5.0888
0.036163,5.0937
0.063629,5.0986
0.050659,5.1035
0.056763,5.1086
0.043488,5.1132
0.001373,5.1181
-0.020294,5.1218
-0.013885,5.1276
-0.006409,5.1328
-0.017395,5.1376
-0.023499,5.1422
-0.021057,5.1471
-0.018463,5.1517
-0.016174,5.1572
-0.016327,5.1611
-0.012512,5.1666
-0.009308,5.1752
-0.019989,5.1813
-0.076294,5.1862
-0.046997,5.191
0.218811,5.2008
0.940857,5.2063
0.847626,5.2106
0.102081,5.2203
-0.373535,5.2255
-0.441132,5.2341
-0.32547,5.2426
-0.152588,5.2493
-0.100555,5.2585
-0.071259,5.267
-0.057831,5.274
-0.045776,5.2826
-0.033417,5.293
-0.024109,5.3027
-0.01358,5.3131
-0.003052,5.3223
0.003357,5.3323
0.013123,5.3461
0.02243,5.3568
0.032654,5.3668
0.039978,5.3812
0.049438,5.3912
0.068817,5.4047
0.088654,5.4156
0.115204,5.4297
0.134888,5.4422
0.144806,5.4541
0.151825,5.4688
0.149689,5.4788
0.11673,5.4932
0.050812,5.5029
-0.026855,5.5182
-0.077362,5.5322
-0.132141,5.5423
-0.167694,5.5576
-0.180206,5.5713
-0.1828,5.5865
-0.175323,5.6003
-0.16571,5.6152
-0.148926,5.6293
-0.133514,5.6439
-0.11673,5.6592
-0.099792,5.6741
-0.089569,5.6885
-0.079956,5.7037
-0.069733,5.7205
-0.057831,5.7373
-0.051117,5.752
-0.043182,5.7703
-0.038452,5.7864
-0.033569,5.8044
-0.030823,5.8206
-0.023346,5.8405
-0.021362,5.8548
-0.019073,5.874
-0.014038,5.8911
-0.016327,5.9076
-0.018616,5.9262
-0.019836,5.9421
-0.018311,5.9604
-0.016174,5.9772
-0.016479,5.9955
-0.01358,6.0107
-0.013885,6.0281
-0.009003,6.0452
-0.00885,6.0583
-0.00412,6.076
-0.00412,6.0928
-0.001526,6.1087
-0.001831,6.1234
-0.001526,6.1371
-0.001678,6.1517
0.003204,6.1667
0.005646,6.1819
0.003357,6.1951
0.005188,6.21
0.007935,6.221
0.00824,6.2354
0.017853,6.25
0.027924,6.2634
0.04715,6.2735
0.042267,6.2888
0.055695,6.3034
0.045929,6.3135
0.004272,6.3269
-0.013733,6.3373
-0.009155,6.3525
0.001068,6.3617
-0.010071,6.3757
-0.014038,6.387
-0.016022,6.3956
-0.009003,6.4084
-0.006409,6.42
-0.006409,6.4307
-0.00061,6.4401
0.000763,6.4502
-0.001526,6.459
-0.061493,6.4688
-0.054474,6.4792
0.111847,6.488
0.674286,6.4929
0.978241,6.5033
0.388031,6.5131
-0.164795,6.5179
-0.424347,6.5274
-0.367889,6.5332
-0.203857,6.5433
-0.11322,6.5479
-0.081177,6.5555
-0.056458,6.5619
-0.040894,6.5674
-0.028839,6.572
-0.019836,6.579
-0.00885,6.586
-0.001831,6.5909
0.005798,6.5964
0.015411,6.601
0.023193,6.6052
0.032501,6.6064
0.03952,6.6107
0.048065,6.6153
0.063934,6.6162
0.084991,6.6205
0.105743,6.6205
0.126495,6.6205
0.142517,6.6202
0.151672,6.6205
0.155792,6.6202
0.141449,6.6208
0.094757,6.6214
0.023193,6.6156
-0.051575,6.6156
-0.110168,6.611
-0.153809,6.6104
-0.174866,6.6061
-0.180206,6.6013
-0.172729,6.5955
-0.158234,6.5909
-0.143585,6.5863
-0.13092,6.5814
-0.111389,6.5765
-0.097046,6.5723
-0.08255,6.5668
-0.067596,6.5582
-0.057983,6.5521
-0.048065,6.5479
-0.041809,6.5369
-0.036011,6.5329
-0.028534,6.5237
-0.030518,6.5186
-0.028534,6.5079
-0.023956,6.4987
-0.018921,6.4935
-0.018768,6.4838
-0.018463,6.4746
-0.018768,6.4642
-0.018921,6.4545
-0.016479,6.445
-0.016327,6.4346
-0.013733,6.4258
-0.014038,6.4157
-0.009003,6.4062
-0.006256,6.3962
-0.003967,6.3861
0.001068,6.3718
0.000916,6.3629
0.00473,6.3519
0.005951,6.3373
0.005798,6.3278
0.005798,6.3138
0.008087,6.3037
0.008087,6.2891
0.008087,6.2769
0.009155,6.264
0.008392,6.2503
0.005798,6.2378
0.008087,6.2259
0.008087,6.2115
0.008087,6.1981
0.008392,6.1859
0.010223,6.1719
0.015869,6.1578
0.027466,6.1472
0.056763,6.1334
0.050812,6.1179
0.059204,6.1041
0.045776,6.091
-0.000305,6.0782
-0.018616,6.0645
-0.016479,6.0498
-0.013733,6.0345
-0.02121,6.0214
-0.027161,6.0062
-0.023804,5.994
-0.018768,5.9811
-0.016632,5.9671
-0.013428,5.9521
-0.009003,5.9375
-0.006561,5.9235
-0.015717,5.9131
-0.069885,5.8984
-0.0383,5.8841
0.21225,5.874
0.887299,5.8597
0.899963,5.8499
0.133514,5.835
-0.374603,5.8255
-0.440979,5.8154
-0.29068,5.8008
-0.16098,5.791
-0.098419,5.7812
-0.07019,5.7697
-0.05188,5.7571
-0.040741,5.7471
-0.03067,5.737
-0.020905,5.7281
-0.010223,5.7184
0.000458,5.708
0.009308,5.6955
0.020294,5.6845
0.029602,5.6747
0.037689,5.665
0.049438,5.6549
0.066223,5.6445
0.083771,5.6354
0.102081,5.6232
0.126495,5.6097
0.146942,5.6006
0.161896,5.5859
0.172729,5.5716
0.167999,5.5597
0.141296,5.5475
0.082855,5.5328
-0.003662,5.5176
-0.088196,5.5029
-0.152588,5.4883
-0.19455,5.4736
-0.215607,5.4599
-0.216827,5.4437
-0.209808,5.4309
-0.197601,5.4153
-0.180359,5.4004
-0.163269,5.386
-0.148315,5.372
-0.131378,5.3613
-0.114288,5.3467
-0.095825,5.3348
-0.080261,5.3226
-0.07019,5.3125
-0.060425,5.2991
-0.048065,5.2884
-0.040741,5.2783
-0.035706,5.2695
-0.03067,5.2588
-0.031128,5.2515
-0.02594,5.2444
-0.023193,5.2353
-0.022125,5.2301
-0.02121,5.2255
-0.023651,5.2176
-0.021362,5.2103
-0.018311,5.206
-0.016327,5.2017
-0.016174,5.2008
-0.01358,5.1956
-0.011444,5.1907
-0.011292,5.1904
-0.009308,5.1859
-0.006714,5.1859
-0.00412,5.1807
-0.001526,5.1813
-0.00412,5.1816
-0.002594,5.177
0.001068,5.1758
0.00351,5.1764
0.003357,5.1767
0.00351,5.1761
0.005646,5.1761
0.00824,5.1767
0.00824,5.1761
0.010681,5.1761
0.010681,5.1764
0.010529,5.1807
0.010529,5.1816
0.012817,5.1813
0.013123,5.181
0.015717,5.1813
0.015411,5.1859
0.013123,5.1862
0.01297,5.1862
0.01297,5.1907
0.010681,5.1904
0.010681,5.1913
0.014191,5.1959
0.025024,5.1962
0.053253,5.1956
0.054169,5.2005
0.049286,5.2008
0.054474,5.2005
0.010986,5.2054
-0.013733,5.2054
-0.018921,5.2057
-0.00885,5.2103
-0.01358,5.2106
-0.021057,5.2106
-0.023956,5.2151
-0.018768,5.2155
-0.016327,5.2151
-0.013885,5.2203
-0.010071,5.2197
-0.006409,5.2203
-0.006409,5.2252
-0.057831,5.2249
-0.071259,5.2258
0.084839,5.2252
0.644684,5.2307
1.08429,5.2295
0.378113,5.2301
-0.263062,5.2295
-0.454102,5.2347
-0.346375,5.235
-0.183411,5.235
-0.110931,5.2371
-0.079956,5.2402
-0.060883,5.2399
-0.046692,5.2402
-0.036011,5.2451
-0.02594,5.2448
-0.014038,5.2448
-0.001221,5.2496
0.014496,5.2493
0.022888,5.2542
0.027313,5.2542
0.032654,5.2594
0.043488,5.2618
0.054169,5.2637
0.071259,5.2689
0.090942,5.2692
0.112915,5.274
0.140076,5.2789
0.154572,5.2789
0.163269,5.2835
0.168915,5.2884
0.153503,5.2884
0.102081,5.2933
0.023499,5.2979
-0.063324,5.2982
-0.134735,5.3033
-0.177765,5.3082
-0.209045,5.3076
-0.214233,5.3125
-0.207367,5.3183
-0.197144,5.3229
-0.17807,5.3278
-0.157928,5.3314
-0.139923,5.3375
-0.123901,5.3421
-0.109406,5.3476
-0.097504,5.3525
-0.082092,5.3571
-0.072479,5.3662
-0.057983,5.3717
-0.055542,5.3766
-0.048065,5.3864
-0.038452,5.3906
-0.033417,5.401
-0.028687,5.4102
-0.026093,5.4196
-0.018768,5.4303
-0.016174,5.4398
-0.016174,5.4523
-0.018616,5.4645
-0.016327,5.4739
-0.016632,5.4886
-0.016174,5.5026
-0.018768,5.5154
-0.013733,5.5307
-0.010223,5.5444
-0.00412,5.5606
-0.006561,5.5762
-0.00412,5.5911
-0.001526,5.6061
0.000763,5.6253
0.001373,5.64
-0.001678,5.6583
0.000916,5.6738
0.000763,5.6934
0.003662,5.7104
0.003052,5.7281
0.003357,5.7471
0.000916,5.7669
0.010681,5.7858
0.007935,5.8035
0.013123,5.8231
0.01297,5.8401
0.015564,5.8591
0.013123,5.8789
0.015564,5.8981
0.013428,5.918
0.010681,5.9375
0.010529,5.9564
0.015564,5.975
0.027466,5.9937
0.046082,6.0104
0.057831,6.0294
0.046997,6.0492
0.061646,6.0666
0.024414,6.084
-0.006104,6.1026
-0.013733,6.1182
-0.000305,6.1353
-0.006409,6.1523
-0.0177,6.1673
-0.018921,6.1813
-0.016327,6.199
-0.013733,6.2143
-0.006866,6.2299
-0.001678,6.2445
0.000916,6.2585
-0.003815,6.2738
-0.053558,6.2878
-0.066528,6.3004
0.066071,6.3126
0.567932,6.3281
1.009064,6.3416
0.463867,6.3522
-0.105133,6.3666
-0.413055,6.3763
-0.389862,6.3885
-0.235748,6.4014
-0.132599,6.4102
-0.090942,6.4203
-0.068817,6.4346
-0.053711,6.4441
-0.040741,6.4551
-0.031281,6.4642
-0.02121,6.4746
-0.01236,6.4838
-0.001831,6.4935
0.005646,6.5012
0.015564,6.5079
0.022583,6.5182
0.03006,6.5274
0.042114,6.5323
0.056915,6.5427
0.071411,6.5479
0.090485,6.5576
0.110474,6.5622
0.127716,6.5668
0.138855,6.5762
0.144958,6.5811
0.140991,6.5863
0.109253,6.5912
0.049133,6.5955
-0.024567,6.5979
-0.085754,6.6019
-0.134735,6.6061
-0.162964,6.6104
-0.174103,6.6107
-0.170288,6.6165
-0.159302,6.6153
-0.146179,6.6199
-0.133667,6.6202
-0.119171,6.6257
-0.09964,6.6251
-0.084686,6.6254
-0.0737,6.6296
-0.061646,6.6309
-0.052795,6.6302
-0.045776,6.6312
-0.040894,6.6299
-0.036011,6.6299
-0.033112,6.6299
-0.028381,6.6351
-0.021057,6.6348
-0.023804,6.6354
-0.021515,6.6351
-0.018768,6.6348
-0.016022,6.6348
-0.013733,6.6354
-0.013733,6.6306
-0.013885,6.6302
-0.011444,6.6306
-0.00885,6.6312
-0.006409,6.6299
-0.003967,6.6302
-0.00412,6.6299
-0.006104,6.6296
-0.003662,6.6302
-0.001373,6.6254
0.00061,6.626
0.000763,6.6254
0.000763,6.6254
0.000916,6.6251
0.003357,6.6211
0.00824,6.6211
0.00824,6.6205
0.00946,6.6208
0.010529,6.6159
0.010681,6.6162
0.010681,6.6153
0.01297,6.611
0.014343,6.6113
0.020447,6.6107
0.036163,6.6107
0.061188,6.6058
0.049591,6.6058
0.063019,6.6022
0.039825,6.6016
-0.001526,6.6006
-0.016327,6.5961
-0.008087,6.5961
-0.006409,6.5967
-0.016327,6.5912
-0.018311,6.5912
-0.016022,6.586
-0.011292,6.5872
-0.009308,6.5811
-0.006561,6.5811
-0.001526,6.5759
0.000763,6.5765
-0.007629,6.572
-0.065155,6.5698
-0.048065,6.5671
0.167999,6.5616
0.808258,6.5616
0.941162,6.5567
0.225525,6.5518
-0.307465,6.5482
-0.444489,6.5479
-0.324402,6.5424
-0.168304,6.5378
-0.103455,6.5375
-0.07782,6.5332
-0.055542,6.5277
-0.042114,6.5283
-0.026093,6.5228
-0.016327,6.5231
-0.00885,6.5186
0.003357,6.5179
0.013123,6.5137
0.023041,6.5134
0.035248,6.5128
0.044708,6.5088
0.054626,6.5082
0.069122,6.5036
0.08606,6.5033
0.107727,6.5039
0.131378,6.4981
0.153656,6.4984
0.166626,6.4926
0.171814,6.4929
0.172729,6.4896
0.146179,6.4883
0.083923,6.4844
-0.001221,6.4792
-0.084229,6.4746
-0.149536,6.4746
-0.192261,6.4685
-0.213776,6.4645
-0.21698,6.4572
-0.211945,6.4499
-0.195007,6.4441
-0.185089,6.4395
-0.15976,6.4349
-0.139923,6.4249
-0.124969,6.4203
-0.10437,6.4111
-0.09201,6.4059
-0.079803,6.3962
-0.070648,6.391
-0.058289,6.3815
-0.04837,6.3721
-0.045776,6.3663
-0.041809,6.3571
-0.036011,6.3519
-0.029602,6.3419
-0.026093,6.3379
-0.021515,6.3272
-0.018768,6.3242
-0.018768,6.3177
-0.021057,6.3135
-0.020905,6.308
-0.016174,6.3031
-0.018616,6.2982
-0.015106,6.2933
-0.014038,6.2891
-0.011444,6.2885
-0.006409,6.2836
-0.003815,6.2808
-0.004272,6.2787
-0.001678,6.2793
0.001068,6.2741
0.003357,6.2738
0.003357,6.2744
0.005646,6.2735
0.008392,6.2741
0.008087,6.2689
0.00824,6.2692
0.008392,6.2695
0.008087,6.2692
0.010681,6.2695
0.010834,6.2747
0.010681,6.2741
0.012817,6.2735
0.013123,6.2744
0.012817,6.2738
0.015564,6.2738
0.015717,6.2741
0.015717,6.2784
0.018158,6.2787
0.016022,6.2781
0.015564,6.2787
0.013275,6.2839
0.015717,6.2836
0.024414,6.2839
0.040894,6.286
0.071716,6.2891
0.056915,6.2878
0.066833,6.2885
0.046082,6.2891
0.002136,6.2933
-0.016174,6.2936
-0.009155,6.2943
-0.009003,6.2891
-0.020142,6.2885
-0.028229,6.2881
-0.028381,6.2894
-0.023499,6.2836
-0.020752,6.2839
-0.016022,6.279
-0.011292,6.2744
-0.006409,6.2698
-0.019684,6.2695
-0.077515,6.265
-0.034637,6.2592
0.235748,6.2552
0.925293,6.2497
0.851288,6.2448
0.053406,6.2399
-0.412292,6.2311
-0.417786,6.2259
-0.248871,6.2198
-0.128784,6.2103
-0.087433,6.2061
-0.067596,6.1963
-0.04837,6.1893
-0.0383,6.181
-0.031281,6.1707
-0.023499,6.1621
-0.011597,6.1514
-0.000763,6.1429
0.010681,6.1285
0.019684,6.1185
0.030212,6.1087
0.042419,6.0968
0.05661,6.0843
0.071716,6.0742
0.089874,6.0596
0.110779,6.0449
0.13382,6.0306
0.154572,6.0162
0.170746,6.0004
0.18158,5.986
0.179138,5.9717
0.148621,5.9521
0.08255,5.9378
-0.007477,5.9186
-0.094757,5.899
-0.160675,5.8835
-0.199738,5.8646
-0.219421,5.845
-0.224152,5.8264
-0.216675,5.8066
-0.200348,5.7889
-0.185242,5.769
-0.167847,5.7495
-0.150909,5.733
-0.134735,5.7135
-0.116577,5.694
-0.102081,5.6738
-0.082397,5.6558
-0.06546,5.6375
-0.058899,5.6201
-0.05188,5.6006
-0.043182,5.5859
-0.035706,5.5664
-0.030975,5.5521
-0.028381,5.5353
-0.030823,5.5197
-0.028534,5.5042
-0.026093,5.4895
-0.023651,5.4767
-0.018921,5.4645
-0.016174,5.4489
-0.016174,5.4395
-0.011444,5.4242
-0.008698,5.415
-0.013733,5.4056
-0.006561,5.3964
-0.00412,5.386
-0.001373,5.3766
-0.001831,5.3665
0.000916,5.3568
0.005951,5.3519
0.00824,5.3415
0.005646,5.3375
0.000763,5.3329
0.002289,5.3229
0.005493,5.318
0.005493,5.3128
0.005493,5.3082
0.005951,5.3036
0.005646,5.3033
0.007935,5.2988
0.008087,5.2936
0.008545,5.2936
0.008392,5.2884
0.012817,5.2829
0.012665,5.2835
0.012817,5.2832
0.015564,5.2783
0.015411,5.2792
0.01297,5.2786
0.010681,5.2734
0.00824,5.2737
0.010986,5.2737
0.008087,5.2737
0.014801,5.2737
0.028992,5.2728
0.060577,5.2734
0.05661,5.2734
0.06073,5.2737
0.052948,5.2737
0.00412,5.274
-0.018463,5.2737
-0.018921,5.2728
-0.011139,5.274
-0.019226,5.2789
-0.025787,5.2789
-0.023651,5.2786
-0.02121,5.2786
-0.018768,5.2783
-0.016174,5.2838
-0.013733,5.2832
-0.013733,5.2838
-0.021057,5.2844
-0.083618,5.2881
-0.067749,5.289
0.177612,5.2881
0.882721,5.2884
0.929413,5.2933
0.160522,5.2942
-0.366669,5.2942
-0.44342,5.2951
-0.296783,5.2982
-0.155029,5.2985
-0.105286,5.2985
-0.07782,5.3
-0.06012,5.303
-0.048065,5.3027
-0.038147,5.303
-0.02594,5.3036
-0.017242,5.3027
-0.006866,5.3079
0.003357,5.3082
0.015411,5.3079
0.025177,5.3085
0.036774,5.3076
0.046997,5.3088
0.061798,5.3073
0.079041,5.3079
0.100555,5.303
0.125122,5.3033
0.1474,5.2982
0.163574,5.2933
0.174408,5.2844
0.176849,5.2762
0.155487,5.2667
0.097046,5.2542
0.011597,5.2444
-0.076141,5.2301
-0.146332,5.2155
-0.192261,5.2017
-0.214233,5.1892
-0.218964,5.1743
-0.212097,5.1611
-0.197144,5.1471
-0.180969,5.1321
-0.164032,5.119
-0.146942,5.108
-0.126953,5.0943
-0.111542,5.0836
-0.097198,5.0742
-0.084991,5.0644
-0.072632,5.0562
-0.06546,5.05
-0.056152,5.0446
-0.047913,5.0351
-0.043182,5.0311
-0.036163,5.0302
-0.032043,5.0256
-0.026093,5.0253
-0.026093,5.0253
-0.023499,5.0256
-0.018616,5.0253
-0.018616,5.0262
-0.014038,5.0302
-0.016479,5.0354
-0.013733,5.04
-0.013885,5.0452
-0.011292,5.0497
-0.00885,5.0592
-0.008698,5.069
-0.009003,5.0742
-0.006256,5.0833
-0.003967,5.0958
0.000916,5.1077
0.000916,5.1181
0.003357,5.1324
0.005798,5.1437
0.005951,5.1566
0.008087,5.1715
0.008545,5.1883
0.010529,5.2048
0.013275,5.22
0.013275,5.235
0.015717,5.2542
0.014648,5.2704
0.013123,5.2887
0.01297,5.3076
0.015259,5.3262
0.015564,5.3439
0.013428,5.3632
0.015411,5.383
0.015564,5.4041
0.015564,5.4245
0.015869,5.4446
0.020294,5.4645
0.028229,5.4877
0.043945,5.5081
0.059357,5.5273
0.054474,5.5511
0.074158,5.571
0.047913,5.593
0.005798,5.6155
-0.01358,5.6345
-0.00412,5.6589
-0.010986,5.679
-0.02121,5.6982
-0.021057,5.7196
-0.018768,5.741
-0.016632,5.7602
-0.011292,5.7812
-0.011292,5.8008
-0.009155,5.8212
-0.006256,5.8395
-0.048828,5.8582
-0.079651,5.8752
0.022278,5.8926
0.469971,5.9134
1.056061,5.9311
0.549927,5.9464
-0.06485,5.9656
-0.412292,5.9814
-0.40741,5.9976
-0.24826,6.0147
-0.132446,6.0294
-0.087128,6.044
-0.062561,6.059
-0.045471,6.0742
-0.032959,6.0846
-0.020752,6.0986
-0.011292,6.1105
-0.004883,6.1224
0.003357,6.1331
0.012817,6.1447
0.020447,6.1563
0.03006,6.1661
0.039368,6.1734
0.047455,6.1816
0.058899,6.1905
0.078888,6.1978
0.098267,6.2064
0.120544,6.2109
0.14267,6.2158
0.157166,6.2201
0.164795,6.2256
0.161896,6.2296
0.128479,6.2305
0.066986,6.2357
-0.01709,6.2357
-0.0914,6.2354
-0.145111,6.2396
-0.179291,6.2399
-0.192566,6.235
-0.190125,6.235
-0.180206,6.2347
-0.163727,6.2329
-0.149078,6.2305
-0.132446,6.2262
-0.113831,6.225
-0.097656,6.2207
-0.084991,6.2155
-0.072784,6.2158
-0.062561,6.2106
-0.052643,6.2064
-0.045471,6.2015
-0.043335,6.1963
-0.038147,6.1911
-0.033417,6.1862
-0.030518,6.1807
-0.028534,6.1761
-0.02594,6.1679
-0.021362,6.1615
-0.020905,6.1572
-0.018616,6.153
-0.018921,6.1475
-0.016174,6.1404
-0.013733,6.1322
-0.011292,6.1279
-0.009003,6.1234
-0.006409,6.1182
-0.001984,6.1118
-0.001373,6.1035
0.000763,6.0983
0.000763,6.0934
0.000763,6.0886
0.00061,6.0788
0.003357,6.0745
0.00824,6.0693
0.00824,6.0593
0.008087,6.055
0.00824,6.0474
0.010681,6.0397
0.010681,6.0306
0.010834,6.0251
0.010529,6.0156
0.007935,6.0059
0.010834,5.9958
0.010986,5.9869
0.01297,5.9778
0.010223,5.9677
0.008087,5.9573
0.008392,5.9482
0.008087,5.9378
0.00824,5.9277
0.00824,5.9183
0.010376,5.9082
0.00824,5.8984
0.008392,5.889
0.006104,5.8798
0.016937,5.8679
0.046387,5.8572
0.059204,5.8456
0.055847,5.8359
0.071716,5.8252
0.028381,5.8157
-0.00351,5.8066
-0.015869,5.7965
-0.011444,5.787
-0.018768,5.7797
-0.028229,5.7693
-0.028229,5.762
-0.023499,5.7513
-0.021057,5.7425
-0.018768,5.7324
-0.016174,5.723
-0.013885,5.7129
-0.013275,5.7037
-0.062103,5.6979
-0.077209,5.6882
0.077972,5.6787
0.627594,5.6705
1.087646,5.6635
0.103149,5.6543
-0.358124,5.6494
-0.452728,5.6393
-0.316467,5.6348
-0.164185,5.6253
-0.104523,5.6204
-0.076904,5.611
-0.058441,5.6052
-0.043335,5.6006
-0.031891,5.5911
-0.021057,5.5869
-0.011444,5.5817
-0.001373,5.5762
0.010834,5.5713
0.020447,5.5667
0.029449,5.5618
0.039368,5.5573
0.05127,5.5524
0.065918,5.5475
0.081482,5.5399
0.102692,5.5325
0.125275,5.528
0.147858,5.5176
0.164337,5.509
0.171967,5.4996
0.174408,5.4886
0.15213,5.4788
0.093994,5.4694
0.011597,5.4547
-0.076447,5.4449
-0.147705,5.4303
-0.194244,5.4166
-0.214691,5.4059
-0.22171,5.3912
-0.216827,5.3772
-0.204163,5.3665
-0.187531,5.3519
-0.169983,5.3384
-0.153046,5.3275
-0.13382,5.3125
-0.117188,5.3033
-0.101166,5.2884
-0.087433,5.2795
-0.075378,5.267
-0.067596,5.2545
-0.061035,5.2448
-0.055084,5.2353
-0.045929,5.2255
-0.0383,5.2158
-0.033569,5.2054
-0.030518,5.2005
-0.024109,5.1907
-0.023651,5.1822
-0.02121,5.1761
-0.018768,5.1712
-0.018463,5.1645
-0.018616,5.1566
-0.016022,5.1523
-0.013733,5.1468
-0.014038,5.1468
-0.011292,5.1422
-0.008545,5.1373
-0.00412,5.137
0.000763,5.1321
-0.001678,5.1321
0.0,5.1321
0.003052,5.1324
0.005646,5.1328
0.007935,5.1328
0.010681,5.1315
0.013275,5.1321
0.015411,5.1373
0.018158,5.137
0.017853,5.1428
0.015717,5.1425
0.015259,5.1474
0.014954,5.1517
0.013123,5.1566
0.010834,5.1611
0.010529,5.1657
0.012817,5.1712
0.015564,5.1761
0.013428,5.1813
0.016022,5.1855
0.013428,5.1947
0.013123,5.2008
0.013123,5.206
0.015411,5.2158
0.015259,5.2222
0.0177,5.2298
0.024872,5.2393
0.04837,5.2451
0.056305,5.2545
0.054321,5.2637
0.065918,5.2704
0.025787,5.2786
-0.006714,5.2884
-0.016327,5.2979
-0.010986,5.3082
-0.02121,5.318
-0.028381,5.3275
-0.028534,5.3375
-0.023651,5.3467
-0.018921,5.3568
-0.016632,5.3668
-0.016479,5.3763
-0.013733,5.3882
-0.016479,5.4007
-0.072327,5.4102
-0.07782,5.4202
0.088501,5.4346
0.684357,5.4443
1.018982,5.4593
0.349884,5.4724
-0.228577,5.4852
-0.448761,5.4984
-0.365143,5.513
-0.203552,5.5283
-0.117035,5.5441
-0.084534,5.5618
-0.065765,5.5753
-0.047913,5.593
-0.036011,5.61
-0.028534,5.6262
-0.020752,5.6448
-0.009003,5.6631
0.003357,5.679
0.010681,5.6982
0.017395,5.7178
0.02533,5.7339
0.037079,5.752
0.044708,5.7709
0.056458,5.7877
0.073547,5.8054
0.096436,5.824
0.117493,5.8392
0.136871,5.8585
0.15213,5.8728
0.162201,5.8887
0.152435,5.9045
0.11322,5.9219
0.041809,5.9369
-0.035095,5.9515
-0.104065,5.965
-0.150909,5.9799
-0.177612,5.993
-0.187531,6.0059
-0.185089,6.0205
-0.17334,6.0355
-0.160065,6.0468
-0.145416,6.0596
-0.131836,6.0742
-0.114136,6.084
-0.099945,6.0986
-0.084381,6.1102
-0.077667,6.1227
-0.065308,6.1343
-0.060425,6.1472
-0.048676,6.1588
-0.043182,6.171
-0.037994,6.1813
-0.031586,6.196
-0.02594,6.2054
-0.023651,6.2195
-0.018616,6.2299
-0.018616,6.2399
-0.02121,6.2509
-0.020905,6.2637
-0.013885,6.2738
-0.011444,6.2839
-0.011444,6.2939
-0.004425,6.3034
-0.001373,6.3132
-0.001678,6.3232
0.000916,6.3324
0.000916,6.3428
-0.001526,6.3516
0.002594,6.3623
0.002899,6.3724
0.005646,6.3812
0.005951,6.3898
0.005951,6.3956
0.005798,6.4059
0.005646,6.4151
0.00824,6.4252
0.00824,6.4307
0.010986,6.4392
0.009918,6.4499
0.008087,6.4597
0.008087,6.4642
0.008392,6.474
0.013123,6.4835
0.00824,6.4923
0.010376,6.4984
0.018463,6.5088
0.028229,6.5179
0.051117,6.5277
0.047913,6.5326
0.066681,6.5424
0.051422,6.5515
0.007935,6.557
-0.015564,6.5665
-0.006561,6.5762
-0.011139,6.5814
-0.023651,6.5912
-0.028687,6.6003
-0.019226,6.6064
-0.018616,6.6153
-0.016327,6.6208
-0.014038,6.629
-0.009003,6.6354
-0.011139,6.6449
-0.033875,6.6498
-0.07309,6.6565
0.001373,6.6644
0.316772,6.6693
0.989685,6.6776
0.706635,6.6837
0.091553,6.6888
-0.336304,6.6934
-0.422363,6.7032
-0.295868,6.7078
-0.158081,6.713
-0.098877,6.7181
-0.072937,6.723
-0.056152,6.7279
-0.043945,6.734
-0.028534,6.7422
-0.02121,6.7477
-0.014343,6.752
-0.006714,6.7572
0.001068,6.7618
0.00824,6.767
0.015259,6.7722
0.025177,6.7764
0.032501,6.7816
0.044403,6.7865
0.061493,6.7902
0.083313,6.7914
0.102997,6.7963
0.115356,6.8011
0.130157,6.8057
0.141602,6.806
0.144196,6.8109
0.121918,6.8149
0.071564,6.8155
-0.00351,6.8207
-0.065765,6.8213
-0.119781,6.8253
-0.154266,6.8256
-0.167999,6.8298
-0.170441,6.8304
-0.164948,6.8359
-0.152435,6.8347
-0.142822,6.835
-0.123749,6.8399
-0.110168,6.8399
-0.092773,6.8454
-0.079346,6.8445
-0.070038,6.8445
-0.062561,6.85
-0.055237,6.8506
-0.047913,6.8546
-0.043182,6.8552
-0.035858,6.8597
-0.030823,6.8597
-0.030518,6.8646
-0.02533,6.8661
-0.021362,6.8692
-0.021515,6.8744
-0.013733,6.8768
-0.021057,6.879
-0.013733,6.8842
-0.011292,6.8884
-0.011139,6.8906
-0.013733,6.8945
-0.013123,6.8988
-0.006561,6.9034
-0.006409,6.9086
-0.006561,6.9119
-0.001831,6.9135
-0.001831,6.918
0.000763,6.9229
0.000916,6.9275
0.003204,6.9327
0.005646,6.9363
0.005646,6.9376
0.005493,6.9427
0.005951,6.9476
0.007172,6.9525
0.005646,6.9571
0.011444,6.9595
0.038147,6.9623
0.044708,6.9672
0.046387,6.9724
0.068817,6.9766
0.032654,6.9806
-0.00351,6.9824
-0.018921,6.9858
-0.006866,6.9922
-0.011292,6.9965
-0.023804,6.9965
-0.021515,7.0013
-0.018768,7.0062
-0.021057,7.0108
-0.015869,7.0111
-0.006256,7.016
-0.00412,7.0206
-0.005951,7.0206
-0.048676,7.0261
-0.04776,7.0309
0.080566,7.0306
0.537262,7.0352
0.99411,7.0352
0.457153,7.0404
-0.099487,7.0444
-0.403748,7.0447
-0.378113,7.0496
-0.229034,7.0502
-0.132751,7.0554
-0.090179,7.0551
-0.06424,7.0593
-0.050507,7.0593
-0.033264,7.0651
-0.025482,7.0685
-0.018768,7.0694
-0.006866,7.0737
0.003052,7.0749
0.010529,7.0792
0.015564,7.0792
0.025635,7.0847
0.03479,7.0844
0.046387,7.0892
0.057526,7.0889
0.073547,7.0889
0.091248,7.0935
0.111237,7.0941
0.127106,7.0935
0.135193,7.099
0.139771,7.099
0.135345,7.099
0.100555,7.0987
0.039825,7.0987
-0.037842,7.099
-0.09964,7.0993
-0.141907,7.099
-0.167999,7.0984
-0.178223,7.0987
-0.172577,7.0996
-0.165863,7.0987
-0.151215,7.099
-0.136719,7.0984
-0.115662,7.099
-0.104828,7.0941
-0.088806,7.0938
-0.077209,7.0944
-0.072479,7.0938
-0.062256,7.0935
-0.055389,7.0892
-0.046387,7.0892
-0.038147,7.0886
-0.030975,7.0886
-0.028992,7.0892
-0.026093,7.0837
-0.023499,7.084
-0.021057,7.0844
-0.016174,7.0844
-0.016479,7.0847
-0.016174,7.0792
-0.011597,7.0795
-0.011292,7.0795
-0.013733,7.0792
-0.011444,7.0795
-0.007935,7.074
-0.006561,7.0752
-0.006714,7.0749
-0.00412,7.0752
-0.000763,7.074
0.00061,7.074
0.003357,7.0743
0.000916,7.0746
0.003357,7.0691
0.00824,7.0697
0.005798,7.0694
0.007935,7.0694
0.00824,7.0694
0.008087,7.0697
0.010376,7.0691
0.012512,7.0694
0.01297,7.0694
0.019989,7.0645
0.045471,7.0645
0.05188,7.0648
0.056152,7.0648
0.064392,7.0648
0.022736,7.0642
-0.008392,7.0645
-0.014343,7.0645
-0.003967,7.0593
-0.012207,7.0596
-0.023499,7.0593
-0.023651,7.0599
-0.018311,7.0599
-0.013885,7.0599
-0.009003,7.0609
-0.006409,7.0593
-0.003815,7.0596
-0.007477,7.0599
-0.054474,7.0547
-0.03952,7.0557
0.125275,7.0547
0.655518,7.0547
0.993652,7.0551
0.336151,7.0544
-0.219574,7.0551
-0.430298,7.0544
-0.345154,7.0551
-0.187073,7.0551
-0.106659,7.0554
-0.076599,7.0541
-0.054626,7.0547
-0.041046,7.0551
-0.031738,7.0547
-0.02121,7.0551
-0.009003,7.0551
0.000763,7.0547
0.010681,7.0544
0.01709,7.0547
0.024567,7.0551
0.037079,7.0551
0.046844,7.0551
0.06073,7.0547
0.078278,7.0502
0.098267,7.0505
0.117798,7.0499
0.139923,7.0496
0.157166,7.0453
0.168915,7.0453
0.166626,7.0407
0.148163,7.0404
0.096893,7.0355
0.018768,7.0306
-0.065613,7.0306
-0.136871,7.0251
-0.177612,7.0215
-0.202026,7.0157
-0.206604,7.0108
-0.20462,7.0062
-0.189667,7.0016
-0.172729,6.9965
-0.155945,6.9916
-0.141144,6.9864
-0.124817,6.9824
-0.106354,6.9769
-0.089722,6.9687
-0.075378,6.9626
-0.065155,6.9571
-0.055542,6.9516
-0.045776,6.9476
-0.040741,6.94
-0.0383,6.933
-0.031738,6.9278
-0.023956,6.9235
-0.018921,6.9186
-0.016174,6.9098
-0.018616,6.9034
-0.016022,6.8988
-0.013733,6.8936
-0.013733,6.889
-0.013733,6.8793
-0.013885,6.8744
-0.013733,6.8692
-0.011292,6.8643
-0.006714,6.8558
-0.006409,6.8503
-0.006714,6.8454
-0.006561,6.8399
-0.00412,6.8301
-0.001831,6.825
-0.001526,6.821
0.00061,6.8103
0.001221,6.8051
0.003204,6.8008
0.005646,6.7908
0.005493,6.7868
0.008545,6.7767
0.010834,6.7715
0.010986,6.7615
0.010681,6.7578
0.010986,6.7477
0.010681,6.7392
0.010834,6.7328
0.013123,6.723
0.015411,6.7136
0.015717,6.7044
0.012817,6.6946
0.010529,6.6858
0.010834,6.6766
0.013428,6.665
0.018616,6.6547
0.032043,6.6455
0.061951,6.6357
0.056763,6.6257
0.060425,6.6153
0.045319,6.6028
0.000916,6.5909
-0.018768,6.5808
-0.011444,6.5714
-0.01297,6.5576
-0.025177,6.5479
-0.028534,6.5381
-0.028534,6.5234
-0.023956,6.5137
-0.02121,6.4984
-0.018921,6.489
-0.013733,6.4795
-0.011292,6.4636
-0.019989,6.4551
-0.074158,6.4423
-0.033722,6.4304
0.213318,6.4209
0.876312,6.4062
0.88913,6.3965
0.12619,6.3821
-0.372772,6.3718
-0.432739,6.3577
-0.281372,6.3464
-0.14267,6.3348
-0.090637,6.3232
-0.066223,6.3132
-0.050507,6.2994
-0.03891,6.2894
-0.028381,6.2738
-0.016479,6.264
-0.006409,6.2518
0.001068,6.2399
0.010681,6.2299
0.022583,6.2204
0.032806,6.2051
0.041962,6.196
0.052338,6.1832
0.068359,6.1716
0.087585,6.1578
0.111847,6.1469
0.134735,6.1331
0.156097,6.1182
0.173187,6.1032
0.18158,6.0892
0.179291,6.0745
0.152893,6.0568
0.090637,6.0397
0.005035,6.0257
-0.082855,6.0071
-0.169373,5.9915
-0.204468,5.9772
-0.219421,5.9589
-0.221558,5.9424
-0.215302,5.9277
-0.200653,5.9088
-0.184937,5.8929
-0.167999,5.8783
-0.151825,5.864
-0.13382,5.8475
-0.118866,5.8322
-0.102844,5.8163
-0.08728,5.8026
-0.073242,5.7907
-0.062561,5.7764
-0.050659,5.7617
-0.043335,5.7477
-0.0383,5.7364
-0.033264,5.7227
-0.030975,5.7117
-0.026093,5.7031
-0.018768,5.6888
-0.018768,5.6787
-0.018616,5.6689
-0.018616,5.6592
-0.016327,5.6494
-0.016327,5.6445
-0.016632,5.6348
-0.013885,5.625
-0.013885,5.6207
-0.00885,5.6107
-0.006561,5.6055
-0.006256,5.6009
-0.006561,5.5905
-0.006104,5.5853
-0.003967,5.5807
-0.001526,5.5765
-0.001373,5.5707
0.002289,5.5661
0.003204,5.5615
0.004883,5.5566
0.008087,5.5569
0.010681,5.5521
0.010681,5.5475
0.00824,5.5472
0.00824,5.5426
0.010986,5.542
0.013275,5.5371
0.010681,5.5374
0.01236,5.5322
0.013428,5.5328
0.015717,5.5276
0.013275,5.5273
0.015411,5.5286
0.017548,5.5219
0.018005,5.5228
0.017853,5.5176
0.018005,5.5185
0.013123,5.5176
0.010986,5.5136
0.018005,5.513
0.034485,5.5124
0.061646,5.5133
0.05188,5.5084
0.066376,5.5084
0.045471,5.5078
0.003662,5.5078
-0.0177,5.5023
-0.012512,5.5029
-0.011292,5.5026
-0.021362,5.5035
-0.028534,5.5035
-0.026093,5.498
-0.023804,5.4977
-0.018616,5.4984
-0.011749,5.4984
-0.011292,5.4984
-0.011597,5.4984
-0.020142,5.4938
-0.078735,5.4932
-0.048065,5.4932
0.212555,5.4922
0.913391,5.4938
0.884094,5.4929
0.093689,5.4935
-0.398254,5.4883
-0.431366,5.488
-0.26947,5.4883
-0.142822,5.4883
-0.095978,5.4883
-0.070801,5.488
-0.052795,5.488
-0.041046,5.4834
-0.031128,5.4837
-0.018921,5.484
-0.00885,5.4831
0.000763,5.4837
0.01297,5.4785
0.023041,5.4788
0.035248,5.4785
0.04364,5.4742
0.053711,5.473
0.066833,5.4684
0.083618,5.4694
0.103149,5.4639
0.125122,5.4541
0.146637,5.4498
0.164642,5.4404
0.176697,5.434
0.174713,5.4254
0.150757,5.4156
0.090332,5.4047
0.004883,5.3915
-0.080414,5.3818
-0.151672,5.3711
-0.194092,5.3583
-0.218811,5.3473
-0.221558,5.3369
-0.214233,5.3281
-0.202179,5.3125
-0.185242,5.303
-0.162811,5.293
-0.143585,5.2811
-0.128632,5.2682
-0.114288,5.2588
-0.096893,5.249
-0.083008,5.2396
-0.070496,5.2298
-0.060577,5.2206
-0.050812,5.2106
-0.042877,5.2051
-0.033417,5.1962
-0.031281,5.1862
-0.02594,5.1813
-0.02594,5.1733
-0.021362,5.1666
-0.019073,5.1614
-0.018768,5.1566
-0.016327,5.1489
-0.016327,5.1428
-0.016174,5.137
-0.016632,5.137
-0.013428,5.1318
-0.013733,5.127
-0.009003,5.1218
-0.009155,5.1227
-0.009003,5.1172
-0.006561,5.1172
-0.00412,5.1129
-0.003967,5.1126
-0.001678,5.1126
0.000763,5.1129
0.000916,5.1129
0.003052,5.1126
0.005951,5.1135
0.00824,5.1129
0.010376,5.1129
0.010834,5.1129
0.010376,5.1129
0.010681,5.1126
0.013123,5.1181
0.01297,5.1181
0.010529,5.1181
0.013123,5.1227
0.015717,5.1227
0.015411,5.1221
0.012817,5.1276
0.01297,5.1273
0.013275,5.1328
0.010834,5.1321
0.010681,5.1324
0.01297,5.137
0.015564,5.137
0.027008,5.1419
0.05661,5.1422
0.064697,5.1474
0.061646,5.148
0.069122,5.1523
0.023499,5.1523
-0.009003,5.152
-0.018768,5.1566
-0.011444,5.1569
-0.016022,5.1614
-0.023346,5.1614
-0.025787,5.1663
-0.020905,5.1663
-0.018616,5.1654
-0.013885,5.1712
-0.011444,5.1709
-0.00885,5.1761
-0.009003,5.1761
-0.049744,5.1761
-0.076904,5.1813
0.045013,5.1819
0.524445,5.1813
1.110687,5.1859
0.487061,5.1855
-0.20462,5.1862
-0.455475,5.191
-0.374451,5.1907
-0.204773,5.1907
-0.119934,5.1959
-0.087891,5.1956
-0.067902,5.1953
-0.055084,5.1981
-0.040894,5.2011
-0.030518,5.2005
-0.018616,5.2011
-0.006561,5.2057
0.005493,5.2054
0.015411,5.206
0.023041,5.2057
0.034943,5.2106
0.042114,5.21
0.053558,5.2106
0.071411,5.2109
0.089874,5.2106
0.110931,5.21
0.134277,5.2103
0.156097,5.21
0.171509,5.2106
0.176392,5.2106
0.171661,5.2103
0.135956,5.2051
0.063324,5.2054
-0.024414,5.2011
-0.107422,5.2008
-0.164032,5.1999
-0.197296,5.1959
-0.212097,5.1907
-0.21225,5.1907
-0.20462,5.1862
-0.189514,5.1862
-0.173187,5.1816
-0.155487,5.1767
-0.139465,5.1764
-0.122528,5.1715
-0.106812,5.1715
-0.091553,5.1669
-0.077515,5.163
-0.065155,5.1624
-0.055389,5.1572
-0.048065,5.1569
-0.040741,5.1514
-0.035858,5.152
-0.03067,5.1517
-0.026093,5.1468
-0.023651,5.1468
-0.018616,5.1471
-0.016479,5.1416
-0.016479,5.1416
-0.018768,5.1422
-0.021362,5.1422
-0.018463,5.1425
-0.014038,5.1419
-0.013885,5.1419
-0.010986,5.1419
-0.009155,5.1416
-0.004425,5.1425
-0.001678,5.1419
0.00061,5.1419
-0.001678,5.1471
0.00061,5.1468
0.003357,5.1474
0.005798,5.1517
0.008087,5.1517
0.012665,5.1517
0.01297,5.1566
0.013123,5.1566
0.012817,5.1562
0.013275,5.1614
0.01297,5.1617
0.013275,5.1672
0.013275,5.1669
0.013123,5.1712
0.013123,5.1718
0.01297,5.1764
0.014648,5.1758
0.015717,5.1807
0.01297,5.1855
0.013123,5.1865
0.01297,5.1904
0.01297,5.191
0.01297,5.1956
0.01297,5.2005
0.010529,5.2005
0.01297,5.206
0.024414,5.2106
0.053253,5.2158
0.05661,5.22
0.06073,5.2249
0.069885,5.2295
0.023956,5.2347
-0.006104,5.239
-0.018158,5.2451
-0.013885,5.2499
-0.021515,5.2542
-0.028534,5.2588
-0.030823,5.2661
-0.031281,5.2737
-0.02594,5.2786
-0.021057,5.2835
-0.016174,5.2933
-0.016479,5.2982
-0.018463,5.3079
-0.074158,5.3122
-0.078125,5.3226
0.100403,5.3278
0.713654,5.3372
1.024017,5.3427
0.310364,5.351
-0.276642,5.361
-0.453949,5.369
-0.344849,5.3766
-0.147095,5.386
-0.102539,5.3955
-0.074921,5.4044
-0.055389,5.4105
-0.043335,5.4202
-0.034332,5.4297
-0.024261,5.4395
-0.016174,5.4495
-0.004272,5.4584
0.005951,5.4639
0.015106,5.473
0.024567,5.4834
0.032654,5.4932
0.041656,5.5032
0.054016,5.5133
0.069122,5.5228
0.087738,5.5325
0.109863,5.5417
0.130463,5.5515
0.147552,5.5588
0.158539,5.5664
0.166779,5.5756
0.157776,5.5865
0.113373,5.5914
0.043182,5.6006
-0.041809,5.6094
-0.113068,5.6155
-0.158234,5.6247
-0.186462,5.6299
-0.19989,5.64
-0.197449,5.6442
-0.189514,5.6549
-0.173187,5.6644
-0.155487,5.6741
-0.139465,5.683
-0.12207,5.6906
-0.107117,5.7007
-0.094452,5.7123
-0.079956,5.7224
-0.070038,5.7324
-0.062714,5.7416
-0.057831,5.7523
-0.052795,5.7663
-0.03891,5.7761
-0.033417,5.7901
-0.028687,5.8008
-0.023651,5.8124
-0.023499,5.8252
-0.018768,5.8389
-0.021362,5.8493
-0.016479,5.8643
-0.016327,5.8743
-0.018921,5.8881
-0.015869,5.8984
-0.011444,5.9128
-0.008698,5.9268
-0.00885,5.9372
-0.00885,5.9521
-0.003967,5.9619
-0.001526,5.976
-0.001678,5.9857
0.003052,6.001
0.003357,6.0104
0.003204,6.0254
0.003357,6.0355
0.007324,6.0495
0.010681,6.0596
0.008392,6.0742
0.010681,6.084
0.008392,6.0938
0.00824,6.1075
0.010681,6.1182
0.010681,6.1279
0.008087,6.1374
0.008392,6.1517
0.009918,6.1621
0.005951,6.1725
0.008087,6.1823
0.010529,6.1905
0.013428,6.2006
0.019684,6.2103
0.030212,6.2201
0.054321,6.2299
0.046997,6.2405
0.069122,6.2497
0.048065,6.2592
0.005341,6.2695
-0.011292,6.2799
-0.006561,6.2888
-0.006866,6.2979
-0.016327,6.3037
-0.02121,6.3135
-0.018768,6.3239
-0.013733,6.3324
-0.011139,6.3376
-0.009155,6.3467
-0.006561,6.3565
-0.006866,6.3617
-0.040588,6.3715
-0.075073,6.3763
0.011139,6.3864
0.385437,6.3916
1.027832,6.4005
0.618744,6.4056
0.009003,6.4157
-0.375824,6.42
-0.413361,6.4258
-0.266876,6.4346
-0.141449,6.4407
-0.093384,6.4438
-0.072784,6.4496
-0.054779,6.459
-0.038452,6.4642
-0.030518,6.4688
-0.021057,6.4737
-0.016174,6.4786
-0.00885,6.4838
0.000305,6.4883
0.010071,6.4972
0.015869,6.5039
0.025177,6.5082
0.03891,6.5125
0.05188,6.5179
0.066528,6.5225
0.083923,6.5225
0.105591,6.5274
0.127869,6.5323
0.139923,6.5372
0.147552,6.5381
0.15213,6.5433
0.128021,6.5479
0.07019,6.5469
-0.000916,6.5527
-0.07431,6.5521
-0.13092,6.5524
-0.163116,6.5576
-0.180054,6.5576
-0.184784,6.5622
-0.172729,6.5619
-0.15625,6.5622
-0.143585,6.5619
-0.126495,6.5668
-0.111694,6.5665
-0.095062,6.5674
-0.082397,6.5723
-0.068665,6.572
-0.057678,6.5717
-0.050507,6.5756
-0.045471,6.5771
-0.038147,6.5765
-0.030823,6.5765
-0.02594,6.5811
-0.023499,6.5817
-0.021515,6.582
-0.018463,6.5854
-0.018616,6.5869
-0.018616,6.5872
-0.018768,6.5866
-0.018616,6.5915
-0.012054,6.5918
-0.009155,6.5906
-0.008698,6.5918
-0.006256,6.5909
-0.006561,6.5961
-0.006561,6.5958
-0.003662,6.5958
-0.001526,6.5964
0.000916,6.5958
0.001221,6.5967
0.003357,6.601
0.005951,6.601
0.005646,6.601
0.003815,6.6019
0.003204,6.601
0.003357,6.6013
0.005798,6.6019
0.005798,6.6016
0.008545,6.601
0.01297,6.6006
0.015259,6.6016
0.01297,6.6003
0.015717,6.601
0.018158,6.601
0.022278,6.6003
0.034637,6.601
0.05722,6.6016
0.052185,6.5961
0.0737,6.5958
0.052338,6.5967
0.008698,6.5964
-0.011749,6.5915
-0.009003,6.5912
-0.011292,6.5909
-0.021362,6.5912
-0.02594,6.5866
-0.023499,6.5869
-0.023499,6.586
-0.018921,6.582
-0.016327,6.5814
-0.011292,6.5811
-0.008698,6.5762
-0.040588,6.5771
-0.077972,6.5765
0.012207,6.5762
0.391998,6.571
1.049805,6.5717
0.610504,6.5717
-0.045471,6.5665
-0.411377,6.5668
-0.412903,6.5619
-0.254211,6.5619
-0.133514,6.5625
-0.089417,6.5579
-0.065613,6.557
-0.047607,6.5518
-0.033417,6.5518
-0.024261,6.5479
-0.016327,6.5479
-0.004272,6.5479
0.005798,6.5433
0.013275,6.5421
0.020905,6.5372
0.027771,6.5381
0.037689,6.5329
0.052185,6.5277
0.063629,6.5277
0.084076,6.5237
0.108337,6.5186
0.131836,6.5186
0.147552,6.5128
0.161285,6.5088
0.166779,6.5027
0.16449,6.4984
0.135651,6.4932
0.067291,6.4886
-0.017395,6.4838
-0.095673,6.4767
-0.153046,6.4688
-0.190735,6.4645
-0.207214,6.4551
-0.206757,6.4456
-0.195465,6.4398
-0.182495,6.4304
-0.165253,6.4209
-0.148468,6.4136
-0.130615,6.4056
-0.113678,6.3965
-0.097046,6.3867
-0.082092,6.3763
-0.07019,6.3675
-0.058594,6.362
-0.052643,6.3525
-0.045166,6.3428
-0.037994,6.3354
-0.033264,6.3275
-0.028687,6.3184
-0.026245,6.3107
-0.023651,6.304
-0.023804,6.2939
-0.021057,6.2888
-0.018616,6.2796
-0.018463,6.2744
-0.016327,6.2695
-0.013885,6.2595
-0.011139,6.2546
-0.010986,6.25
-0.011444,6.2408
-0.00885,6.2357
-0.006409,6.2305
-0.003662,6.2253
-0.003815,6.2201
-0.001831,6.2109
0.001068,6.2061
0.003204,6.2009
0.00351,6.1963
0.005188,6.1911
0.003204,6.1859
0.005646,6.1816
0.00824,6.1777
0.008545,6.1713
0.00824,6.167
0.008087,6.1615
0.010376,6.1569
0.00824,6.1523
0.010681,6.1465
0.010681,6.1429
0.010681,6.1407
0.00824,6.1377
0.010834,6.1322
0.010529,6.1267
0.010681,6.123
0.010529,6.1179
0.019684,6.1127
0.049438,6.1111
0.063934,6.109
0.061035,6.1035
0.076904,6.0986
0.035553,6.0928
-0.003357,6.0913
-0.018616,6.0892
-0.013733,6.0843
-0.018768,6.0791
-0.026093,6.0745
-0.02594,6.0687
-0.023651,6.0645
-0.018921,6.062
-0.016327,6.0596
-0.013733,6.0538
-0.013885,6.0492
-0.016937,6.044
-0.072021,6.0391
-0.056305,6.0345
0.161591,6.0297
0.798492,6.0248
0.989532,6.0199
0.224915,6.0159
-0.340881,6.0059
-0.453644,6.0001
-0.316467,5.9964
-0.166779,5.9909
-0.104828,5.9814
-0.078125,5.9766
-0.059662,5.9689
-0.046234,5.9619
-0.035858,5.9546
-0.025635,5.9473
-0.016174,5.9387
-0.006561,5.9326
0.005493,5.9235
0.016022,5.9161
0.027771,5.9088
0.039215,5.8984
0.044861,5.889
0.061188,5.8841
0.078888,5.874
0.100555,5.8643
0.122833,5.8499
0.145111,5.8395
0.164032,5.8255
0.178833,5.813
0.178986,5.8005
0.159454,5.7861
0.104218,5.7687
0.021515,5.7547
-0.066528,5.7388
-0.138092,5.7224
-0.186768,5.7083
-0.211792,5.6937
-0.219269,5.679
-0.21286,5.6616
-0.200348,5.6451
-0.184784,5.6305
-0.166016,5.6152
-0.148926,5.6006
-0.133362,5.5875
-0.114594,5.5734
-0.097504,5.5615
-0.084839,5.5472
-0.072784,5.5353
-0.06485,5.5225
-0.053253,5.5133
-0.045776,5.4993
-0.038452,5.4883
-0.033569,5.4788
-0.030823,5.4694
-0.026245,5.4599
-0.023651,5.4544
-0.018616,5.4449
-0.018768,5.4395
-0.016479,5.4294
-0.016327,5.4248
-0.014038,5.4199
-0.013885,5.4117
-0.011139,5.4059
-0.011292,5.4016
-0.009308,5.4004
-0.008392,5.3961
-0.003967,5.3903
-0.001526,5.3912
-0.001678,5.3867
0.000763,5.386
0.003204,5.3818
0.005798,5.3815
0.007935,5.3815
0.007935,5.3763
0.007935,5.3763
0.006104,5.3766
0.007935,5.3769
0.008087,5.376
0.010376,5.3763
0.010834,5.3763
0.00824,5.3763
0.007935,5.3769
0.008087,5.3769
0.007782,5.3763
0.008087,5.3812
0.010681,5.3815
0.013123,5.3815
0.013123,5.3812
0.01297,5.3815
0.015717,5.3867
0.025024,5.387
0.048828,5.3864
0.063629,5.3903
0.056763,5.3909
0.075989,5.3903
0.040436,5.3912
0.003052,5.3952
-0.014038,5.3958
-0.006561,5.3958
-0.011597,5.4007
-0.023804,5.4016
-0.02533,5.401
-0.020905,5.4007
-0.018616,5.4056
-0.016174,5.4053
-0.013733,5.4053
-0.011292,5.4102
-0.015259,5.4105
-0.070038,5.4102
-0.072937,5.412
0.109406,5.415
0.711517,5.4147
1.053772,5.415
0.315552,5.4205
-0.29007,5.4205
-0.446472,5.4205
-0.327454,5.4199
-0.170746,5.4251
-0.104828,5.4251
-0.075836,5.4245
-0.058594,5.4251
-0.046539,5.43
-0.035706,5.4303
-0.023804,5.4303
-0.016327,5.4297
-0.003967,5.4297
0.005951,5.4352
0.015411,5.4349
0.025482,5.4349
0.037842,5.4355
0.048676,5.4346
0.061951,5.4352
0.076904,5.4349
0.097809,5.4352
0.118408,5.4346
0.140228,5.4355
0.157471,5.43
0.171051,5.4291
0.176697,5.4303
0.159607,5.4251
0.110321,5.4251
0.030975,5.4202
-0.057526,5.4156
-0.131226,5.4111
-0.18219,5.405
-0.207214,5.401
-0.216522,5.3955
-0.211945,5.3864
-0.201721,5.3812
-0.184631,5.3711
-0.165405,5.3619
-0.14801,5.3549
-0.13092,5.347
-0.114288,5.3375
-0.099335,5.3271
-0.086975,5.3171
-0.074615,5.3088
-0.061035,5.303
-0.050201,5.293
-0.043335,5.2841
-0.0383,5.2786
-0.033264,5.2686
-0.02594,5.264
-0.02121,5.2548
-0.016785,5.2493
-0.016022,5.2448
-0.013428,5.2393
-0.014038,5.2347
-0.011292,5.2304
-0.011139,5.2255
-0.013885,5.2206
-0.011292,5.2155
-0.012054,5.2103
-0.00885,5.2106
-0.006714,5.2057
-0.006409,5.1999
-0.00412,5.2011
-0.001373,5.2005
0.002441,5.1962
0.005646,5.1956
0.005646,5.1959
0.003357,5.1962
0.003204,5.1959
0.003662,5.1913
0.005798,5.191
0.008087,5.1959
0.00824,5.1953
0.010529,5.1962
0.008087,5.1956
0.010376,5.1953
0.013123,5.1962
0.013123,5.1956
0.013275,5.2008
0.01297,5.1999
0.01358,5.2011
0.015411,5.2051
0.017395,5.2057
0.027161,5.2054
0.05188,5.2057
0.058594,5.2106
0.056305,5.2106
0.070801,5.2124
0.032959,5.2158
0.000305,5.2155
-0.011444,5.22
-0.00885,5.22
-0.019073,5.2203
-0.028381,5.2252
-0.02655,5.2252
-0.023956,5.2255
-0.02121,5.2298
-0.018616,5.2301
-0.014038,5.2298
-0.009003,5.235
-0.00885,5.2347
-0.054474,5.2347
-0.079498,5.2402
0.05188,5.2396
0.558624,5.2396
1.102142,5.2448
0.462494,5.2448
-0.2034,5.2469
-0.442352,5.2499
-0.358582,5.2496
-0.193024,5.2542
-0.114288,5.2545
-0.082855,5.2539
-0.062103,5.2588
-0.048218,5.2591
-0.036011,5.2591
-0.024109,5.2594
-0.015717,5.264
-0.008545,5.2643
0.000916,5.2643
0.01236,5.2682
0.020294,5.2692
0.03067,5.2692
0.041351,5.2734
0.052032,5.2737
0.068359,5.2734
0.085754,5.2744
0.108948,5.2783
0.130768,5.2789
0.149078,5.2792
0.161438,5.2786
0.16922,5.2786
0.163879,5.2789
0.121307,5.2789
0.04776,5.2792
-0.038147,5.2783
-0.113678,5.2783
-0.1651,5.2789
-0.195465,5.2786
-0.209503,5.274
-0.207062,5.2737
-0.197144,5.2783
-0.180054,5.2786
-0.16098,5.2789
-0.143433,5.2786
-0.126648,5.2786
-0.112305,5.2789
-0.096893,5.2835
-0.082855,5.2835
-0.070648,5.2853
-0.062714,5.2887
-0.050354,5.293
-0.04303,5.2933
-0.0383,5.2988
-0.032654,5.303
-0.028534,5.3076
-0.023651,5.3125
-0.021362,5.3174
-0.021057,5.3241
-0.02121,5.3323
-0.018616,5.3372
-0.016632,5.3421
-0.013123,5.3522
-0.01358,5.3568
-0.015717,5.3665
-0.013885,5.376
-0.011444,5.3818
-0.008698,5.3912
-0.006256,5.4004
-0.003967,5.4053
-0.001678,5.415
0.001068,5.4251
0.003052,5.4349
0.001068,5.4446
0.00061,5.4553
0.003357,5.4633
0.005646,5.473
0.005646,5.4834
0.005646,5.4932
0.008392,5.5029
0.005798,5.513
0.00824,5.5225
0.010986,5.5316
0.01297,5.542
0.015564,5.5533
0.015411,5.567
0.015411,5.5765
0.015564,5.5905
0.020447,5.6012
0.023041,5.6128
0.038147,5.625
0.059357,5.6387
0.051422,5.6491
0.071411,5.6647
0.045166,5.6778
0.007935,5.6891
-0.00885,5.7034
0.000153,5.7184
-0.004272,5.7324
-0.013275,5.7462
-0.016174,5.7587
-0.016479,5.7718
-0.013275,5.7864
-0.009003,5.8005
-0.006561,5.8151
-0.004272,5.8301
-0.006714,5.8444
-0.046234,5.8594
-0.077515,5.874
0.017395,5.8881
0.446167,5.9027
1.044312,5.9183
0.553436,5.9344
-0.054474,5.9494
-0.405731,5.9637
-0.409698,5.9787
-0.251007,5.993
-0.138397,6.0074
-0.093994,6.0199
-0.06897,6.0352
-0.053406,6.0495
-0.039062,6.0645
-0.026093,6.0788
-0.015564,6.0934
-0.014038,6.1081
-0.006714,6.1218
0.000916,6.1346
0.00824,6.1472
0.018768,6.1612
0.027771,6.1728
0.039673,6.1859
0.049591,6.2
0.063934,6.2112
0.088501,6.2228
0.111542,6.2344
0.128326,6.2454
0.139771,6.2552
0.152893,6.2646
0.152283,6.2741
0.122375,6.2842
0.06073,6.2936
-0.013428,6.3025
-0.082397,6.3101
-0.13092,6.3174
-0.161285,6.3278
-0.177002,6.3324
-0.175171,6.3416
-0.167694,6.3477
-0.155029,6.3519
-0.137787,6.3602
-0.121918,6.3666
-0.109253,6.3715
-0.094757,6.3773
-0.079193,6.3818
-0.07019,6.3864
-0.06073,6.3916
-0.052032,6.3965
-0.044861,6.4011
-0.036163,6.4059
-0.03067,6.4108
-0.028534,6.4148
-0.023651,6.42
-0.023956,6.4252
-0.023651,6.4304
-0.021362,6.4343
-0.018463,6.4346
-0.023804,6.4395
-0.021057,6.4456
-0.016479,6.4496
-0.016479,6.4548
-0.013733,6.4594
-0.010834,6.4594
-0.009003,6.4642
-0.00885,6.4694
-0.006561,6.4737
-0.003967,6.4746
-0.003967,6.4795
-0.000153,6.4844
0.007935,6.4883
0.005646,6.489
0.005798,6.4938
0.008087,6.499
0.008087,6.4984
0.008087,6.5033
0.010529,6.5079
0.010834,6.5134
0.01297,6.5131
0.020447,6.5182
0.037079,6.5234
0.054169,6.5228
0.049591,6.528
0.063934,6.5332
0.037079,6.5372
-0.00473,6.5381
-0.023193,6.5421
-0.013885,6.5482
-0.011292,6.5521
-0.018616,6.5567
-0.026398,6.557
-0.023651,6.5619
-0.016174,6.5668
-0.014038,6.5717
-0.009003,6.5765
-0.00885,6.5811
-0.006409,6.5869
-0.043793,6.5918
-0.065308,6.5964
0.036926,6.6006
0.439911,6.6058
1.033478,6.6104
0.568542,6.6156
-0.038452,6.6199
-0.39444,6.6248
-0.403442,6.6296
-0.252686,6.6324
-0.140228,6.6351
-0.093689,6.6391
-0.069427,6.6455
-0.052338,6.6501
-0.040741,6.655
-0.033112,6.6592
-0.023804,6.6641
-0.013733,6.6699
-0.011597,6.6739
-0.00351,6.6794
0.010529,6.6788
0.015717,6.6843
0.021057,6.6888
0.032501,6.6943
0.041962,6.6989
0.060272,6.6992
0.078583,6.7032
0.09491,6.7029
0.116272,6.7084
0.122681,6.709
0.127716,6.7133
0.125122,6.7139
0.103302,6.7181
0.046692,6.7178
-0.019531,6.7181
-0.088196,6.7188
-0.140228,6.7181
-0.165863,6.7227
-0.182343,6.7233
-0.177765,6.723
-0.163116,6.7227
-0.155945,6.723
-0.141449,6.723
-0.119324,6.7233
-0.109863,6.7224
-0.091553,6.7282
-0.077515,6.7276
-0.061951,6.7282
-0.059814,6.7282
-0.047302,6.7334
-0.036011,6.7334
-0.035706,6.7377
-0.032654,6.7377
-0.020752,6.7422
-0.016174,6.745
-0.011902,6.7477
-0.008545,6.7523
-0.011444,6.7569
-0.008698,6.7618
-0.001373,6.7667
-0.007324,6.7725
-0.004425,6.7761
-0.00412,6.7819
-0.003967,6.7868
-0.003967,6.7963
-0.00412,6.8015
-0.001678,6.8066
-0.001831,6.8155
-0.001526,6.8204
0.003357,6.8301
0.005951,6.835
0.005646,6.8448
0.003357,6.8497
0.008087,6.8597
0.015717,6.8652
0.02533,6.8747
0.049133,6.8832
0.053253,6.8887
0.055084,6.8985
0.06073,6.9037
0.020142,6.9131
-0.011139,6.9208
-0.013885,6.9272
-0.006561,6.9363
-0.013733,6.9431
-0.018768,6.9522
-0.016174,6.9571
-0.010529,6.9672
-0.009766,6.972
-0.006561,6.9791
0.001068,6.987
-0.001678,6.991
-0.009613,7.0007
-0.057678,7.0059
-0.021362,7.0108
0.167847,7.02
0.757904,7.0255
0.887909,7.0312
0.292969,7.0349
-0.205841,7.0398
-0.414581,7.0459
-0.334778,7.0502
-0.181885,7.0554
-0.102539,7.0599
-0.0737,7.0648
-0.054321,7.0697
-0.040741,7.0746
-0.033569,7.0792
-0.026093,7.084
-0.015411,7.0886
-0.011444,7.0947
-0.003967,7.0944
0.00946,7.099
0.014954,7.1027
0.020294,7.1057
0.029602,7.1088
0.04425,7.1133
0.052643,7.1136
0.070038,7.1188
0.092163,7.1182
0.110168,7.1194
0.121307,7.1231
0.128326,7.1225
0.132751,7.1225
0.117188,7.1231
0.075989,7.1234
0.01297,7.1231
-0.053406,7.1234
-0.112152,7.1228
-0.148163,7.124
-0.162659,7.1194
-0.167847,7.1182
-0.165405,7.1185
-0.155945,7.1133
-0.140839,7.1136
-0.125427,7.114
-0.111389,7.1082
-0.100708,7.1088
-0.08255,7.1036
-0.067902,7.1036
-0.057831,7.1039
-0.050659,7.0984
-0.0383,7.0996
-0.030823,7.0935
-0.028381,7.0938
-0.023804,7.0886
-0.023651,7.0889
-0.023651,7.084
-0.018921,7.0837
-0.015869,7.0795
-0.013733,7.0786
-0.013885,7.074
-0.01358,7.0737
-0.011139,7.074
-0.008545,7.0694
-0.00885,7.0694
-0.009155,7.0642
-0.00885,7.0645
-0.009155,7.0642
-0.003967,7.0593
-0.006561,7.0593
-0.00885,7.0602
-0.006714,7.0551
-0.006409,7.0544
-0.001526,7.0544
-0.001373,7.0551
0.002899,7.0502
0.013885,7.0499
0.035858,7.0499
0.054321,7.0499
0.053864,7.0496
0.066681,7.0447
0.024719,7.045
-0.010071,7.0453
-0.021057,7.0453
-0.006561,7.0453
-0.011292,7.0447
-0.020905,7.0444
-0.025787,7.0404
-0.021667,7.0398
-0.018616,7.0398
-0.011444,7.0404
-0.009003,7.0407
-0.006409,7.0404
-0.006561,7.0401
-0.046234,7.0398
-0.047455,7.0404
0.082245,7.0401
0.529175,7.0398
1.036835,7.0358
0.45105,7.0355
-0.150299,7.0349
-0.428162,7.0346
-0.373535,7.0352
-0.21225,7.0352
-0.115814,7.0349
-0.079498,7.0352
-0.055695,7.0303
-0.038452,7.0303
-0.025024,7.0306
-0.019073,7.0306
-0.009155,7.0303
-0.003357,7.0303
0.005493,7.0251
0.015411,7.0258
0.024872,7.0255
0.03479,7.0251
0.049438,7.0203
0.061951,7.0203
0.077209,7.0206
0.097961,7.0203
0.117645,7.016
0.134735,7.016
0.151062,7.0111
0.158997,7.0105
0.158539,7.0053
0.13916,7.0059
0.092926,7.0013
0.016632,7.0007
-0.065765,6.9958
-0.132294,6.9919
-0.176544,6.9901
-0.199738,6.987
-0.20462,6.9818
-0.199738,6.9772
-0.188751,6.9724
-0.167847,6.972
-0.15213,6.9666
-0.134735,6.962
-0.12146,6.9574
-0.106659,6.9522
-0.092316,6.9473
-0.077362,6.9427
-0.061646,6.9379
-0.050812,6.9327
-0.03891,6.9278
-0.028534,6.9229
-0.026093,6.9183
-0.02121,6.9144
-0.018921,6.9086
-0.013885,6.9046
-0.011444,6.9022
-0.013733,6.8991
-0.014038,6.8933
-0.01358,6.8884
-0.013885,6.8845
-0.013885,6.8793
-0.013733,6.8744
-0.011597,6.8698
-0.008698,6.8643
-0.006714,6.86
-0.003967,6.8546
-0.006256,6.8497
-0.006561,6.8448
-0.004272,6.8402
-0.001831,6.8353
-0.001221,6.8304
0.00351,6.8256
0.005951,6.821
0.004425,6.8158
0.007782,6.8112
0.00824,6.8063
0.00824,6.8011
0.010986,6.7957
0.010681,6.7914
0.013123,6.7871
0.013123,6.7795
0.010681,6.7728
0.015106,6.7667
0.020142,6.7618
0.030212,6.7575
0.055389,6.7526
0.056763,6.7474
0.067139,6.7422
0.065765,6.7371
0.019684,6.7313
-0.006104,6.7236
-0.010376,6.7188
-0.004883,6.7136
-0.013733,6.7081
-0.023499,6.7023
-0.019989,6.6943
-0.016327,6.6885
-0.016327,6.6833
-0.011444,6.6751
-0.006714,6.6687
-0.006714,6.6641
-0.012512,6.6595
-0.06485,6.6501
-0.029297,6.6452
0.183868,6.6403
0.798645,6.6309
0.933075,6.6257
0.187683,6.6211
-0.333862,6.6107
-0.443573,6.6058
-0.309906,6.6016
-0.158997,6.5918
-0.096283,6.5875
-0.067444,6.5784
-0.05188,6.572
-0.038452,6.5652
-0.028229,6.557
-0.017395,6.5524
-0.006256,6.5417
0.003204,6.5375
0.010376,6.5268
0.018158,6.5234
0.027771,6.5134
0.039673,6.5063
0.049133,6.4984
0.066376,6.4886
0.08316,6.4795
0.10437,6.4685
0.127563,6.4594
0.147247,6.4499
0.164032,6.4398
0.174255,6.4301
0.16861,6.42
0.143585,6.4062
0.088959,6.3956
0.007935,6.3867
-0.076599,6.3715
-0.145569,6.362
-0.184479,6.3477
-0.207062,6.337
-0.211945,6.3229
-0.20462,6.3132
-0.190277,6.2982
-0.175629,6.2894
-0.158081,6.2744
-0.141144,6.2646
-0.126495,6.2497
-0.109558,6.2408
-0.093384,6.2256
-0.079803,6.2155
-0.067749,6.2018
-0.055237,6.1914
-0.045776,6.1819
-0.037231,6.1697
-0.028381,6.1578
-0.023804,6.1472
-0.021362,6.1374
-0.018463,6.1279
-0.016022,6.1182
-0.014191,6.1081
-0.013733,6.0989
-0.014191,6.0916
-0.013885,6.084
-0.014038,6.0739
-0.011444,6.0641
-0.011749,6.0593
-0.008698,6.0495
-0.00885,6.0449
-0.006256,6.0355
-0.004578,6.0284
-0.001373,6.0208
0.000763,6.0147
-0.001526,6.0052
0.001068,6.0013
0.000916,5.9912
0.003204,5.9857
0.00351,5.9811
0.005798,5.9717
0.00351,5.9668
0.003052,5.957
0.005951,5.9521
0.008087,5.9424
0.010681,5.936
0.008392,5.928
0.008545,5.918
0.010681,5.9134
0.01297,5.9033
0.013123,5.8984
0.013123,5.889
0.010376,5.8838
0.010834,5.8743
0.010681,5.8694
0.01297,5.8591
0.0177,5.8548
0.03479,5.8475
0.060577,5.8401
0.054169,5.835
0.071564,5.8298
0.046539,5.8231
0.003662,5.8154
-0.017242,5.8105
-0.014038,5.8054
-0.01358,5.7999
-0.021362,5.7956
-0.028381,5.791
-0.028687,5.7843
-0.023651,5.7764
-0.021057,5.7715
-0.02121,5.7663
-0.016327,5.7617
-0.013733,5.7568
-0.026855,5.7516
-0.071716,5.7474
-0.011597,5.741
0.282593,5.7343
0.985413,5.7278
0.764771,5.7227
-0.004578,5.7175
-0.419464,5.7132
-0.410004,5.7074
-0.243683,5.7037
-0.123138,5.6982
-0.082397,5.6937
-0.060577,5.6888
-0.045319,5.6839
-0.033569,5.6775
-0.023651,5.6699
-0.012512,5.6647
-0.00412,5.6595
0.00824,5.6549
0.020752,5.6494
0.03006,5.6445
0.039215,5.6403
0.049438,5.6357
0.063629,5.6311
0.078888,5.625
0.097198,5.6201
0.118713,5.6158
0.142059,5.6055
0.159454,5.5997
0.174561,5.5902
0.178833,5.5804
0.171967,5.5713
0.141602,5.5615
0.076904,5.5521
-0.010834,5.5423
-0.097351,5.531
-0.164032,5.5182
-0.204163,5.5081
-0.22171,5.4984
-0.226593,5.4871
-0.219421,5.4739
-0.202484,5.4639
-0.185394,5.4544
-0.16922,5.4446
-0.153198,5.433
-0.136414,5.4211
-0.119019,5.4114
-0.100555,5.4013
-0.085144,5.3922
-0.074921,5.3848
-0.063782,5.3763
-0.050659,5.3671
-0.043488,5.3568
-0.037231,5.3522
-0.030823,5.3418
-0.024872,5.3366
-0.023804,5.3278
-0.021057,5.3226
-0.018463,5.3183
-0.018921,5.3131
-0.018616,5.3046
-0.018463,5.2991
-0.016327,5.2972
-0.016174,5.2936
-0.014038,5.2887
-0.008698,5.2841
-0.004272,5.2795
-0.001831,5.2795
0.000763,5.2737
0.000763,5.2731
0.000916,5.274
-0.001373,5.2689
0.000916,5.2698
0.003204,5.2689
0.005646,5.2686
0.010681,5.2686
0.010681,5.2689
0.010834,5.2686
0.010529,5.2682
0.010681,5.2686
0.01297,5.2689
0.013123,5.2692
0.010376,5.2689
0.010681,5.2692
0.010834,5.2689
0.011902,5.2737
0.015411,5.2747
0.015411,5.2737
0.013428,5.274
0.015259,5.2786
0.015411,5.2783
0.015564,5.2786
0.015564,5.2792
0.019989,5.2832
0.037231,5.2841
0.066528,5.2835
0.054474,5.2884
0.073547,5.2884
0.053711,5.2887
0.011139,5.2933
-0.01358,5.2936
-0.014038,5.2936
-0.016174,5.2939
-0.026245,5.2982
-0.028839,5.2985
-0.028534,5.2979
-0.023804,5.303
-0.018616,5.303
-0.017548,5.303
-0.014038,5.3067
-0.011444,5.3073
-0.024414,5.3085
-0.079651,5.3076
-0.025787,5.3131
0.275726,5.3122
0.996094,5.3128
0.787659,5.3131
0.003815,5.3131
-0.420532,5.3174
-0.416107,5.3174
-0.246735,5.3174
-0.131378,5.3177
-0.088959,5.3177
-0.070038,5.3177
-0.05661,5.3177
-0.041046,5.3229
-0.027313,5.322
-0.016327,5.3223
-0.007019,5.3223
0.005646,5.3217
0.018158,5.3229
0.027771,5.3229
0.038605,5.3226
0.049438,5.3232
0.059204,5.3229
0.0737,5.3229
0.089417,5.3223
0.111847,5.3229
0.136414,5.3177
0.155945,5.3177
0.171661,5.3125
0.181427,5.304
0.180359,5.2979
0.15152,5.2887
0.088196,5.282
0.001526,5.2734
-0.086823,5.2621
-0.156555,5.2505
-0.201111,5.2402
-0.220184,5.2301
-0.224304,5.22
-0.216675,5.2063
-0.202179,5.1965
-0.186157,5.1865
-0.167999,5.1715
-0.149841,5.1614
-0.131073,5.1508
-0.115356,5.1376
-0.099945,5.1279
-0.084686,5.1181
-0.07019,5.1077
-0.060425,5.0983
-0.050507,5.0885
-0.042267,5.0793
-0.0383,5.0699
-0.033417,5.0586
-0.028992,5.0531
-0.02594,5.0455
-0.023499,5.036
-0.023804,5.0311
-0.021362,5.0247
-0.016327,5.0198
-0.016479,5.0107
-0.013885,5.0058
-0.011444,5.0012
-0.008545,4.9963
-0.009155,4.9963
-0.005188,4.9915
-0.001678,4.9866
0.002289,4.9866
0.005646,4.9817
0.006104,4.982
0.005798,4.9768
0.003357,4.9774
0.003052,4.9762
0.002899,4.9722
0.003052,4.9716
0.003204,4.9716
0.005493,4.9713
0.008087,4.9725
0.008087,4.9722
0.010834,4.9722
0.010376,4.9719
0.011139,4.9722
0.012054,4.9719
0.013123,4.9768
0.014954,4.9768
0.01297,4.9768
0.010681,4.9768
0.010529,4.9823
0.012817,4.9817
0.013428,4.9823
0.013123,4.982
0.013123,4.9869
0.015869,4.986
0.025177,4.9872
0.055084,4.9915
0.064087,4.9918
0.064087,4.9924
0.074158,4.996
0.030365,4.9963
-0.003662,4.9966
-0.016327,4.9969
-0.011139,5.0012
-0.018616,5.0009
-0.026245,5.0018
-0.026093,5.0012
-0.021057,5.0015
-0.018616,5.0012
-0.016327,5.0064
-0.014191,5.0061
-0.013885,5.0067
-0.024719,5.0067
-0.086975,5.0058
-0.058289,5.0061
0.221405,5.0104
0.955353,5.011
0.854797,5.0113
0.071564,5.0107
-0.400696,5.011
-0.425262,5.0165
-0.266113,5.0162
-0.138855,5.0159
-0.088806,5.0165
-0.065308,5.0159
-0.048065,5.0208
-0.036011,5.0211
-0.028534,5.0201
-0.017395,5.0211
-0.007629,5.0223
0.00061,5.0253
0.010834,5.0259
0.024261,5.0262
0.032501,5.0253
0.039673,5.0305
0.050659,5.0305
0.066376,5.0305
0.085907,5.0299
0.106964,5.0305
0.129395,5.0299
0.151367,5.0305
0.166626,5.0302
0.178833,5.0302
0.178986,5.0253
0.157166,5.025
0.100708,5.0247
0.015411,5.0247
-0.072784,5.0211
-0.144348,5.0208
-0.189514,5.0162
-0.218201,5.0162
-0.226746,5.0107
-0.223999,5.0113
-0.209656,5.0064
-0.188599,5.0058
-0.16922,5.0012
-0.149536,5.0012
-0.132294,4.9966
-0.114746,4.9963
-0.101929,4.9921
-0.087128,4.9915
-0.072632,4.9905
-0.062866,4.9869
-0.055084,4.9872
-0.048218,4.9823
-0.040894,4.982
-0.035706,4.9817
-0.030823,4.9817
-0.026093,4.9823
-0.021515,4.9771
-0.018768,4.9768
-0.016174,4.9774
-0.016327,4.9777
-0.013885,4.9768
-0.011292,4.9768
-0.011139,4.9823
-0.011292,4.982
-0.011139,4.982
-0.009155,4.982
-0.006561,4.9823
-0.001678,4.9869
-0.000458,4.9863
0.003052,4.9869
0.003357,4.9924
0.003357,4.9915
0.005798,4.9969
0.008087,4.9963
0.00824,5.0015
0.00824,5.0012
0.010681,5.0067
0.010376,5.0113
0.00824,5.011
0.007935,5.0159
0.010681,5.0204
0.010529,5.0208
0.010834,5.0259
0.010376,5.0299
0.010376,5.0308
0.012817,5.0357
0.013123,5.04
0.012665,5.0412
0.013123,5.0452
0.012817,5.0507
0.010986,5.0546
0.015564,5.0552
0.031738,5.0598
0.061646,5.0647
0.05661,5.0687
0.070648,5.0696
0.060425,5.0745
0.016632,5.0793
-0.00885,5.0787
-0.014191,5.0833
-0.01297,5.0885
-0.023346,5.0934
-0.030975,5.0934
-0.026093,5.098
-0.023346,5.1031
-0.018768,5.1083
-0.016174,5.1077
-0.016174,5.1126
-0.016479,5.1172
-0.068665,5.1227
-0.087585,5.1227
0.068054,5.1273
0.642242,5.1321
1.076965,5.1376
0.382233,5.1422
-0.248566,5.1468
-0.458679,5.152
-0.359955,5.1562
-0.192566,5.1614
-0.113068,5.1663
-0.080261,5.1715
-0.059204,5.1764
-0.04776,5.1813
-0.033722,5.1859
-0.023651,5.191
-0.013733,5.1956
-0.001678,5.2023
0.005798,5.2106
0.010834,5.2148
0.021973,5.22
0.033722,5.2258
0.044403,5.2353
0.054016,5.2402
0.070496,5.2448
0.088196,5.2493
0.110168,5.2542
0.130157,5.2588
0.151215,5.2637
0.163116,5.2695
0.171356,5.2737
0.16922,5.2789
0.133514,5.2838
0.06073,5.2875
-0.023956,5.2887
-0.098267,5.2939
-0.161438,5.2979
-0.196075,5.3033
-0.209656,5.303
-0.209351,5.3079
-0.200195,5.3131
-0.1828,5.3174
-0.156555,5.3186
-0.140839,5.3226
-0.124207,5.3275
-0.109406,5.3323
-0.094757,5.3375
-0.081177,5.3421
-0.071259,5.347
-0.06546,5.3519
-0.060425,5.3568
-0.052948,5.3619
-0.045319,5.3665
-0.040436,5.3732
-0.036011,5.3812
-0.031128,5.3867
-0.030975,5.3946
-0.028534,5.4047
-0.02594,5.4105
-0.02121,5.4205
-0.016174,5.4297
-0.016479,5.4391
-0.010834,5.448
-0.011597,5.4581
-0.009155,5.4675
-0.006409,5.4779
-0.00412,5.4883
-0.001221,5.4984
0.000916,5.5078
0.002594,5.5228
0.003204,5.5316
0.00351,5.546
0.003052,5.5573
0.000763,5.5698
0.005646,5.5811
0.010681,5.5948
0.00824,5.6067
0.010834,5.621
0.010529,5.6345
0.010834,5.6491
0.01297,5.6607
0.013275,5.6744
0.010529,5.6885
0.014954,5.7031
0.010529,5.7175
0.012207,5.7324
0.010681,5.7471
0.015717,5.762
0.013275,5.7751
0.015259,5.7874
0.027466,5.8002
0.053253,5.8163
0.049438,5.8298
0.063019,5.8444
0.063019,5.8594
0.024109,5.8707
-0.001373,5.8832
-0.006104,5.899
-0.00412,5.9122
-0.013733,5.9241
-0.023041,5.9375
-0.023804,5.9521
-0.018768,5.9628
-0.016022,5.976
-0.009308,5.9906
-0.008698,6.0016
-0.011444,6.0156
-0.055695,6.0272
-0.084381,6.0397
0.018158,6.0507
0.467987,6.0648
1.037903,6.0742
0.540771,6.0883
-0.064087,6.0983
-0.408936,6.1096
-0.410919,6.123
-0.254669,6.1322
-0.135956,6.1426
-0.088501,6.1533
-0.062714,6.1658
-0.046539,6.1761
-0.03067,6.1871
-0.021057,6.1954
-0.014801,6.2064
-0.006561,6.2158
0.000916,6.225
0.007019,6.232
0.018005,6.2393
0.027466,6.2497
0.036163,6.2592
0.043335,6.2646
0.054474,6.2744
0.070801,6.2793
0.088654,6.2888
0.110168,6.2936
0.131836,6.2988
0.144806,6.3034
0.152283,6.3098
0.151978,6.3171
0.132751,6.319
0.075989,6.3232
-0.000305,6.3275
-0.073853,6.3324
-0.132599,6.337
-0.167847,6.3379
-0.184174,6.3428
-0.182343,6.347
-0.171356,6.3464
-0.163116,6.3516
-0.146942,6.3525
-0.131531,6.3516
-0.11673,6.3571
-0.09964,6.3565
-0.08255,6.3614
-0.074921,6.3617
-0.067749,6.3623
-0.057831,6.3669
-0.055084,6.3663
-0.050354,6.3663
-0.043182,6.3721
-0.038452,6.3718
-0.033417,6.3718
-0.028534,6.3718
-0.028534,6.3757
-0.028687,6.377
-0.025787,6.3766
-0.023804,6.38
-0.023499,6.3815
-0.02121,6.3815
-0.016327,6.3815
-0.013733,6.3858
-0.009003,6.3867
-0.003815,6.3861
-0.006409,6.3867
-0.006409,6.3916
-0.00412,6.3904
-0.001373,6.391
0.000916,6.3907
0.003052,6.3959
0.003662,6.3965
0.005798,6.3962
0.005646,6.4005
0.010681,6.4005
0.013123,6.4014
0.01297,6.4008
0.013123,6.4008
0.015564,6.4059
0.013123,6.4066
0.01297,6.4053
0.017853,6.4056
0.029755,6.4059
0.055847,6.4105
0.05188,6.4108
0.068054,6.4108
0.057831,6.4102
0.015411,6.4108
-0.011139,6.4105
-0.011597,6.4102
-0.007935,6.4157
-0.018005,6.4154
-0.026245,6.4148
-0.02243,6.4154
-0.021667,6.4154
-0.013885,6.416
-0.011597,6.4151
-0.006409,6.4163
-0.01297,6.4154
-0.066833,6.416
-0.066376,6.4163
0.104828,6.4209
0.688324,6.4203
0.992889,6.4209
0.343933,6.4209
-0.215607,6.4209
-0.44281,6.4203
-0.363617,6.4209
-0.193939,6.4209
-0.107727,6.4209
-0.073853,6.4154
-0.050659,6.4151
-0.039062,6.416
-0.030823,6.4157
-0.016937,6.4166
-0.009003,6.416
-0.001678,6.4154
0.005951,6.416
0.015717,6.4108
0.022736,6.4102
0.034332,6.4108
0.044861,6.4059
0.056763,6.4059
0.073242,6.4008
0.090179,6.4014
0.105591,6.3959
0.128937,6.3913
0.148926,6.3861
0.157166,6.3812
0.164337,6.376
0.154572,6.366
0.116272,6.3617
0.046082,6.3522
-0.031433,6.3434
-0.10788,6.3324
-0.159912,6.3229
-0.187988,6.312
-0.197449,6.2991
-0.197144,6.2857
-0.1828,6.2744
-0.168915,6.2595
-0.152893,6.2439
-0.134583,6.2268
-0.116882,6.2109
-0.099487,6.1963
-0.087128,6.1771
-0.073395,6.1612
-0.062714,6.1423
-0.055084,6.1243
-0.050507,6.1072
-0.045624,6.088
-0.0383,6.0703
-0.033417,6.0535
-0.030975,6.0358
-0.028687,6.0156
-0.028534,5.9998
-0.026093,5.9808
-0.026093,5.9634
-0.023804,5.9473
-0.021515,5.9296
-0.021057,5.9122
-0.018921,5.8978
-0.018463,5.8795
-0.014191,5.8646
-0.00885,5.8502
-0.006104,5.8356
-0.00412,5.8206
-0.001678,5.8072
0.000153,5.7959
-0.001526,5.7816
-0.003815,5.7678
-0.001526,5.7568
0.00061,5.7437
0.000916,5.7327
0.00351,5.7217
0.003204,5.7083
0.006256,5.6982
0.00824,5.6879
0.005798,5.6793
0.00824,5.6693
0.007782,5.6631
0.010986,5.6546
0.013275,5.6451
0.020599,5.6403
0.039215,5.6302
0.062103,5.6247
0.054321,5.6192
0.074005,5.6104
0.042877,5.6055
0.001373,5.6009
-0.018921,5.5951
-0.013733,5.5914
-0.012054,5.5859
-0.02121,5.5814
-0.025635,5.5795
-0.023651,5.5759
-0.020752,5.571
-0.018616,5.5713
-0.013885,5.5664
-0.011292,5.5664
-0.025177,5.5618
-0.079956,5.5624
-0.030365,5.5573
0.269928,5.5569
0.991516,5.5569
0.800781,5.5576
0.052338,5.5521
-0.398865,5.5521
-0.435181,5.5524
-0.278473,5.5518
-0.144958,5.5521
-0.093079,5.5524
-0.068512,5.5521
-0.050201,5.5524
-0.035706,5.5466
-0.023956,5.5469
-0.013733,5.5463
-0.003815,5.5472
0.005798,5.5472
0.013428,5.5475
0.022888,5.5463
0.03006,5.5469
0.03952,5.5475
0.051727,5.5466
0.066528,5.5426
0.083771,5.5423
0.103302,5.5411
0.127869,5.5374
0.149078,5.5316
0.166016,5.5228
0.176239,5.5179
0.172577,5.5081
0.147858,5.4984
0.090332,5.4886
0.006714,5.4788
-0.076752,5.4691
-0.145569,5.4556
-0.191498,5.4443
-0.211945,5.4312
-0.21698,5.4202
-0.209503,5.4056
-0.194855,5.3961
-0.17807,5.3812
-0.16098,5.3702
-0.143433,5.3568
-0.123596,5.3436
-0.107727,5.3326
-0.092468,5.322
-0.079956,5.3079
-0.067596,5.2985
-0.057831,5.2875
-0.053253,5.275
-0.045776,5.2643
-0.040741,5.2545
-0.035706,5.2451
-0.031128,5.2386
-0.028381,5.2295
-0.025787,5.22
-0.023651,5.2121
-0.020905,5.2054
-0.021362,5.2008
-0.018768,5.191
-0.018311,5.1859
-0.016174,5.1804
-0.016174,5.1755
-0.016174,5.1715
-0.013733,5.1666
-0.00885,5.1611
-0.006256,5.1562
-0.00412,5.1562
-0.003204,5.1517
-0.001373,5.1517
0.003052,5.1465
0.005798,5.1474
0.003052,5.1422
0.005951,5.1422
0.008545,5.1425
0.010681,5.1425
0.013123,5.1422
0.013123,5.1419
0.013123,5.1419
0.012665,5.1419
0.010529,5.1419
0.010986,5.1419
0.013275,5.1419
0.019684,5.1468
0.036774,5.1471
0.066223,5.1477
0.054321,5.1468
0.069122,5.1474
0.054932,5.1526
0.009155,5.1517
-0.011749,5.1523
-0.011292,5.1566
-0.009003,5.1559
-0.018616,5.1569
-0.023651,5.1566
-0.023804,5.1611
-0.021057,5.1617
-0.016479,5.1624
-0.011444,5.166
-0.00885,5.1666
-0.014038,5.1669
-0.073853,5.1715
-0.07019,5.1712
0.125427,5.1718
0.751343,5.1758
1.035004,5.1761
0.288849,5.1767
-0.305023,5.1797
-0.451508,5.181
-0.329437,5.1807
-0.171204,5.1816
-0.107117,5.1859
-0.080261,5.1859
-0.060272,5.1859
-0.045471,5.1913
-0.033264,5.191
-0.023651,5.1944
-0.013733,5.1965
-0.00412,5.1956
0.007629,5.2008
0.017853,5.2005
0.025482,5.2008
0.03479,5.2054
0.046997,5.206
0.061798,5.21
0.076752,5.2103
0.094147,5.2109
0.117493,5.2155
0.139923,5.2151
0.166168,5.2155
0.174103,5.2148
0.17395,5.22
0.150146,5.2206
0.090027,5.22
0.006714,5.224
-0.076141,5.2252
-0.142975,5.2243
-0.187073,5.2246
-0.205078,5.2301
-0.207062,5.2298
-0.19989,5.2298
-0.190582,5.2341
-0.175781,5.2347
-0.16037,5.2402
-0.144196,5.2448
-0.128174,5.2448
-0.109863,5.2499
-0.095215,5.2542
-0.080566,5.2591
-0.070038,5.264
-0.063324,5.2686
-0.054932,5.2734
-0.048218,5.2838
-0.040741,5.2887
-0.033264,5.2957
-0.03067,5.3033
-0.028534,5.3125
-0.025787,5.3186
-0.026093,5.3275
-0.026093,5.3372
-0.026245,5.3467
-0.023499,5.3577
-0.018768,5.3714
-0.018311,5.3809
-0.016174,5.3949
-0.016632,5.4065
-0.016174,5.4214
-0.013885,5.4358
-0.013885,5.4529
-0.009003,5.4691
-0.006714,5.4843
-0.006561,5.5026
-0.001526,5.5212
-0.001678,5.5371
0.003357,5.5576
0.005798,5.5762
0.003357,5.596
0.003204,5.6155
0.003357,5.636
0.00351,5.6577
0.003052,5.6781
0.007477,5.6982
0.00824,5.7217
0.008545,5.7416
0.003204,5.7617
0.007782,5.7864
0.022736,5.806
0.032806,5.8289
0.056915,5.8487
0.05188,5.8725
0.065918,5.8932
0.057068,5.9134
0.013733,5.936
-0.009308,5.9564
-0.006714,5.9763
-0.001678,5.9967
-0.013885,6.0184
-0.016022,6.0385
-0.016327,6.0587
-0.016174,6.0779
-0.013733,6.0965
-0.006256,6.1139
-0.001373,6.1331
-0.003662,6.152
-0.066833,6.17
-0.05661,6.1865
0.1091,6.2051
0.6987,6.2204
0.950317,6.2384
0.335388,6.2537
-0.200958,6.2692
-0.436096,6.2836
-0.362701,6.2997
-0.19928,6.3138
-0.110626,6.3281
-0.072784,6.3422
-0.052948,6.3568
-0.040741,6.3718
-0.028534,6.3846
-0.021057,6.3956
-0.016174,6.4105
0.000153,6.4203
0.00824,6.4346
0.013428,6.4453
0.019684,6.4587
0.028076,6.4688
0.032654,6.4789
0.045166,6.4886
0.059357,6.4984
0.076141,6.5079
0.093384,6.5176
0.115814,6.5271
0.134277,6.5369
0.144806,6.5463
0.147247,6.5527
0.140686,6.5619
0.104065,6.5665
0.039978,6.5768
-0.030975,6.5814
-0.094147,6.5863
-0.138245,6.5964
-0.167236,6.6019
-0.170288,6.6058
-0.167999,6.611
-0.157623,6.6156
-0.143738,6.6208
-0.13092,6.6254
-0.112457,6.6299
-0.099335,6.6345
-0.082092,6.6394
-0.072937,6.6449
-0.065308,6.6498
-0.053253,6.6547
-0.048065,6.6605
-0.038757,6.6605
-0.035553,6.6644
-0.033264,6.6693
-0.026093,6.6739
-0.023499,6.6791
-0.02594,6.684
-0.021057,6.6837
-0.018616,6.6895
-0.018921,6.6937
-0.018616,6.6989
-0.016174,6.7029
-0.014343,6.7084
-0.008545,6.7117
-0.013885,6.7139
-0.006866,6.7181
-0.003967,6.7236
-0.006561,6.7282
-0.003967,6.7328
-0.006256,6.7386
-0.001526,6.7422
-0.003815,6.7474
-0.00412,6.752
-0.001526,6.7563
0.003357,6.7624
0.000916,6.7667
0.003357,6.7715
0.003204,6.777
0.013123,6.7819
0.027771,6.7862
0.049591,6.7947
0.044556,6.8008
0.063934,6.8054
0.05249,6.8106
0.008698,6.8164
-0.013733,6.8259
-0.00885,6.8304
-0.013733,6.835
-0.016022,6.8454
-0.021362,6.8491
-0.023499,6.8542
-0.013733,6.8652
-0.006866,6.8695
-0.006714,6.875
-0.006561,6.8842
-0.006714,6.8887
-0.052338,6.8991
-0.045929,6.9037
0.074921,6.9128
0.493774,6.9177
0.966644,6.9278
0.492401,6.933
-0.039062,6.9431
-0.371094,6.951
-0.383606,6.9571
-0.24231,6.9669
-0.131226,6.9714
-0.087738,6.9815
-0.068359,6.9864
-0.050659,6.9962
-0.035248,7.0023
-0.026093,7.0108
-0.019073,7.0187
-0.016327,7.0258
-0.005951,7.0312
0.000763,7.0398
0.011902,7.045
0.018005,7.0544
0.030212,7.0596
0.037689,7.0645
0.041962,7.074
0.058746,7.0786
0.081177,7.085
0.099487,7.0898
0.111694,7.0941
0.120544,7.0993
0.127411,7.1039
0.125275,7.1088
0.097504,7.1133
0.047302,7.1176
-0.009613,7.1185
-0.073395,7.1234
-0.115662,7.1283
-0.140686,7.128
-0.155334,7.1326
-0.146179,7.1323
-0.143433,7.1381
-0.133972,7.1381
-0.121918,7.1426
-0.103149,7.1423
-0.086212,7.142
-0.075073,7.1478
-0.065308,7.1475
-0.053101,7.1475
-0.04776,7.1475
-0.037994,7.1497
-0.038147,7.1527
-0.028534,7.1527
-0.023651,7.1524
-0.028839,7.1521
-0.023651,7.153
-0.023804,7.1524
-0.019989,7.1527
-0.014191,7.1524
-0.011597,7.1524
-0.009003,7.1524
-0.009003,7.1527
-0.011139,7.1524
-0.011292,7.153
-0.006714,7.1524
-0.00885,7.1533
-0.003967,7.1524
-0.001678,7.1524
-0.001831,7.1524
-0.001373,7.153
-0.004272,7.153
-0.001678,7.1527
0.005646,7.1527
0.015259,7.1521
0.029144,7.1521
0.049591,7.153
0.042114,7.1527
0.061646,7.1527
0.038757,7.1521
-0.000458,7.1533
-0.014038,7.153
-0.005188,7.1524
-0.007629,7.1518
-0.016174,7.1524
-0.021362,7.1527
-0.018768,7.1527
-0.018768,7.1533
-0.013885,7.1527
-0.006256,7.153
-0.006409,7.1521
-0.006714,7.1521
-0.044098,7.1524
-0.044708,7.1521
0.072784,7.1533
0.483093,7.153
0.978241,7.1524
0.491028,7.1524
-0.045929,7.1524
-0.378418,7.1527
-0.374756,7.1518
-0.229492,7.153
-0.122833,7.1524
-0.082397,7.1521
-0.06134,7.1524
-0.041962,7.1518
-0.035706,7.1521
-0.025787,7.1524
-0.018311,7.1524
-0.011139,7.1524
-0.006561,7.1472
0.00824,7.1475
0.015411,7.1481
0.025024,7.1469
0.030212,7.1475
0.040741,7.1475
0.056305,7.1432
0.071411,7.142
0.089569,7.1429
0.107117,7.1387
0.124054,7.1378
0.130005,7.1378
0.130463,7.1329
0.122681,7.1332
0.092468,7.128
0.034485,7.1231
-0.032349,7.124
-0.092926,7.1185
-0.137329,7.114
-0.160675,7.1136
-0.167847,7.1094
-0.172729,7.1036
-0.161743,7.0987
-0.145874,7.0944
-0.133362,7.0892
-0.118866,7.0844
-0.101929,7.0789
-0.088501,7.0743
-0.0737,7.0697
-0.063782,7.0642
-0.052643,7.059
-0.045929,7.0547
-0.038452,7.0505
-0.033112,7.045
-0.030975,7.0401
-0.026245,7.0349
-0.023499,7.0303
-0.021057,7.0261
-0.023499,7.0209
-0.021057,7.0169
-0.019073,7.016
-0.02121,7.0102
-0.02121,7.0056
-0.016327,7.001
-0.013733,6.9968
-0.014038,6.9958
-0.006409,6.9907
-0.00885,6.9867
-0.004272,6.9821
-0.003967,6.9815
-0.001526,6.9775
0.000916,6.972
0.000916,6.9669
0.001068,6.9666
0.000763,6.9623
0.000916,6.9568
0.001068,6.9577
0.003357,6.9519
0.007019,6.9473
0.019531,6.9473
0.046844,6.9427
0.052032,6.9376
0.056763,6.9376
0.064392,6.9339
0.021515,6.9278
-0.010529,6.9287
-0.02121,6.9232
-0.006409,6.9232
-0.013733,6.9183
-0.023346,6.918
-0.021057,6.9138
-0.018616,6.9135
-0.018768,6.9083
-0.014038,6.9086
-0.011292,6.9037
-0.011597,6.9028
-0.009003,6.8985
-0.051422,6.8994
-0.051727,6.8945
0.098877,6.8933
0.569763,6.889
1.016235,6.8887
0.399017,6.8839
-0.184937,6.8787
-0.435181,6.8799
-0.367279,6.8741
-0.203857,6.8698
-0.110474,6.8655
-0.077972,6.8649
-0.057678,6.8604
-0.03952,6.8546
-0.028687,6.85
-0.019073,6.8445
-0.010986,6.8396
-0.001526,6.8365
0.004883,6.835
0.014343,6.8304
0.027924,6.8256
0.035095,6.8198
0.044403,6.8158
0.06073,6.8109
0.081024,6.8063
0.08606,6.796
0.086212,6.7911
0.143585,6.7862
0.157166,6.7813
0.162201,6.7731
0.155029,6.7667
0.130615,6.7621
0.072632,6.7532
-0.002747,6.748
-0.081177,6.7407
-0.146942,6.7325
-0.184784,6.7255
-0.206299,6.7175
-0.209351,6.7096
-0.202332,6.7032
-0.187531,6.6934
-0.168915,6.6885
-0.153351,6.6797
-0.141907,6.6699
-0.124054,6.6638
-0.10788,6.655
-0.089417,6.6458
-0.074005,6.6403
-0.060577,6.6299
-0.046234,6.6217
-0.036011,6.6156
-0.033722,6.6058
-0.028381,6.6019
-0.023651,6.5906
-0.023956,6.5826
-0.018616,6.5771
-0.02121,6.5671
-0.021515,6.5622
-0.018463,6.5536
-0.017395,6.5469
-0.016479,6.5424
-0.013885,6.5326
-0.014038,6.5283
-0.011597,6.5231
-0.011292,6.5158
-0.011597,6.5088
-0.009155,6.503
-0.007477,6.499
-0.006409,6.4938
-0.00412,6.489
-0.003967,6.4838
0.001984,6.4789
0.005951,6.4734
0.005798,6.4691
0.005951,6.4642
0.008087,6.46
0.01297,6.4542
0.010529,6.4493
0.010834,6.4478
0.013123,6.4444
0.015259,6.4395
0.015564,6.4346
0.015564,6.4301
0.015411,6.4261
0.015717,6.4255
0.015869,6.42
0.018311,6.416
0.015717,6.4105
0.015564,6.4062
0.018005,6.4059
0.018005,6.4008
0.020294,6.3965
0.027618,6.3913
0.058746,6.3873
0.055542,6.3861
0.060272,6.3812
0.050659,6.3779
0.007019,6.3715
-0.017548,6.3675
-0.014954,6.3669
-0.006561,6.3611
-0.01358,6.3574
-0.023499,6.3519
-0.023804,6.3477
-0.02121,6.3422
-0.016632,6.3373
-0.012054,6.3324
-0.00885,6.3278
-0.006256,6.3235
-0.011292,6.3162
-0.06424,6.3083
-0.030975,6.3037
0.186005,6.2982
0.813599,6.2939
0.942078,6.2869
0.174103,6.2781
-0.353088,6.2741
-0.434265,6.2689
-0.292664,6.2598
-0.146027,6.2549
-0.089569,6.2503
-0.065155,6.2402
-0.04837,6.2354
-0.036011,6.2259
-0.026245,6.221
-0.013733,6.2109
-0.001831,6.2033
0.010529,6.196
0.018005,6.1874
0.027771,6.181
0.034943,6.1719
0.044708,6.1624
0.056152,6.1533
0.072632,6.1438
0.090637,6.1331
0.110321,6.123
0.131531,6.1105
0.151978,6.0986
0.169373,6.0852
0.178986,6.0745
0.174103,6.0602
0.150757,6.0449
0.095062,6.0306
0.015717,6.0162
-0.072327,6.001
-0.144653,5.9857
-0.200958,5.9717
-0.221405,5.954
-0.231628,5.9384
-0.223846,5.9232
-0.207367,5.9082
-0.192413,5.8936
-0.175629,5.8783
-0.156708,5.8643
-0.141144,5.849
-0.119781,5.834
-0.10437,5.8197
-0.085907,5.8054
-0.072479,5.7913
-0.062714,5.7812
-0.050659,5.7669
-0.043182,5.7568
-0.036011,5.7422
-0.033264,5.7327
-0.025635,5.7233
-0.02121,5.7114
-0.021057,5.6985
-0.018616,5.69
-0.021057,5.6815
-0.02121,5.6741
-0.02121,5.6644
-0.018463,5.6552
-0.018921,5.6497
-0.016327,5.64
-0.014191,5.6348
-0.013733,5.6281
-0.011444,5.6201
-0.006409,5.6143
-0.006561,5.6107
-0.004272,5.6064
0.000763,5.6009
0.00061,5.5963
0.003357,5.5923
0.003052,5.5908
0.00351,5.5862
0.005493,5.5811
0.008087,5.5807
0.011902,5.5765
0.013123,5.5762
0.012665,5.5713
0.012817,5.5713
0.013123,5.5713
0.013123,5.5664
0.01297,5.5664
0.013275,5.567
0.01297,5.5661
0.013123,5.5612
0.010834,5.5615
0.010834,5.5621
0.010681,5.5615
0.01297,5.5612
0.015564,5.5618
0.015717,5.5618
0.013275,5.5609
0.020447,5.556
0.040741,5.5563
0.064087,5.5569
0.05188,5.5563
0.067444,5.5569
0.038757,5.5569
-0.003815,5.5563
-0.023804,5.5569
-0.012512,5.5569
-0.013733,5.5566
-0.023651,5.5563
-0.030975,5.5569
-0.030823,5.5566
-0.020752,5.5573
-0.014191,5.5576
-0.012665,5.5569
-0.009155,5.5573
-0.00885,5.5518
-0.038452,5.5515
-0.072479,5.5518
0.027466,5.5521
0.42511,5.5518
1.097412,5.5518
0.580292,5.5515
-0.159912,5.5521
-0.452881,5.5515
-0.376282,5.5472
-0.205994,5.5469
-0.115967,5.5472
-0.07782,5.5469
-0.058289,5.542
-0.045624,5.5414
-0.037994,5.5417
-0.023651,5.5377
-0.011292,5.5377
-0.001984,5.5371
0.007935,5.5325
0.018005,5.5322
0.032959,5.527
0.044403,5.5276
0.054169,5.5234
0.071106,5.5225
0.085907,5.5176
0.105438,5.513
0.127563,5.5035
0.149536,5.4977
0.166931,5.488
0.17807,5.4794
0.176392,5.4691
0.162811,5.4596
0.11795,5.4477
0.04364,5.4355
-0.04303,5.4242
-0.122833,5.412
-0.181122,5.401
-0.213165,5.3873
-0.226746,5.3763
-0.226898,5.3632
-0.216675,5.3519
-0.203247,5.3381
-0.186005,5.3278
-0.165558,5.3159
-0.146942,5.3033
-0.129089,5.2933
-0.11261,5.2841
-0.093689,5.2701
-0.079803,5.2597
-0.067596,5.2493
-0.057678,5.2405
-0.048065,5.2313
-0.040894,5.2246
-0.035706,5.2155
-0.033722,5.2057
-0.028229,5.2005
-0.025787,5.1907
-0.023651,5.1862
-0.023804,5.177
-0.020905,5.1718
-0.021362,5.1666
-0.020905,5.162
-0.018463,5.1569
-0.016174,5.1514
-0.014038,5.1474
-0.011597,5.1416
-0.009003,5.1422
-0.004272,5.1367
-0.003967,5.1355
-0.003815,5.1318
-0.001678,5.1324
0.00061,5.1273
0.000916,5.1273
0.000458,5.1276
0.003052,5.1221
0.003052,5.1224
0.008087,5.1224
0.00824,5.1227
0.005951,5.123
0.007935,5.1221
0.010529,5.1227
0.010681,5.1236
0.01297,5.1227
0.01297,5.1221
0.012817,5.1273
0.013123,5.1273
0.013123,5.1273
0.010834,5.127
0.010986,5.1276
0.00824,5.1324
0.010834,5.1324
0.010681,5.1312
0.010834,5.1331
0.012054,5.1376
0.015564,5.1367
0.032196,5.137
0.067596,5.137
0.059357,5.1419
0.071259,5.1428
0.063019,5.1419
0.014648,5.1468
-0.013733,5.1471
-0.017242,5.1471
-0.016327,5.1471
-0.023956,5.1523
-0.030823,5.1514
-0.030975,5.1517
-0.027008,5.1566
-0.023499,5.1566
-0.019073,5.1566
-0.016174,5.1569
-0.01358,5.162
-0.043182,5.162
-0.084534,5.1611
0.005951,5.1614
0.405121,5.1614
1.101227,5.1666
0.609131,5.1663
-0.130157,5.1666
-0.44754,5.1666
-0.384674,5.1666
-0.213318,5.1666
-0.118103,5.1666
-0.079803,5.1712
-0.060425,5.1718
-0.046082,5.1712
-0.0354,5.1709
-0.021515,5.1712
-0.011597,5.1718
-0.004272,5.1712
0.004883,5.1709
0.015564,5.1718
0.027618,5.1712
0.037842,5.1712
0.052185,5.1715
0.061798,5.1712
0.076447,5.1718
0.076141,5.1715
0.076599,5.1712
0.131683,5.1712
0.161896,5.1715
0.176544,5.1669
0.183868,5.1663
0.179443,5.1608
0.151215,5.1617
0.088654,5.1566
0.003815,5.1517
-0.08255,5.1514
-0.153351,5.1468
-0.198212,5.1422
-0.220642,5.137
-0.226593,5.1309
-0.216827,5.1276
-0.202026,5.1181
-0.185394,5.1129
-0.165558,5.1044
-0.148315,5.098
-0.131531,5.0891
-0.114441,5.0836
-0.090942,5.0754
-0.077515,5.0696
-0.065002,5.0598
-0.065308,5.0552
-0.050812,5.0452
-0.041656,5.04
-0.035706,5.0305
-0.033569,5.0253
-0.028534,5.0208
-0.02594,5.0119
-0.023499,5.0067
-0.020905,5.0009
-0.023956,4.9966
-0.018311,4.9915
-0.016174,4.9866
-0.016022,4.9823
-0.016479,4.9765
-0.013733,4.9728
-0.011597,4.9722
-0.010376,4.967
-0.003967,4.9637
-0.006561,4.9622
-0.006714,4.957
-0.004272,4.9576
-0.001831,4.9576
0.000763,4.9527
0.000916,4.9524
0.003204,4.9524
0.003357,4.9521
0.005493,4.9478
0.00351,4.9475
0.00824,4.9478
0.01297,4.9475
0.013123,4.9475
0.013123,4.9475
0.011902,4.9475
0.012817,4.9478
0.01297,4.9478
0.013123,4.949
0.013428,4.9527
0.013123,4.953
0.013123,4.9524
0.01297,4.953
0.015564,4.9524
0.015869,4.957
0.015564,4.9573
0.015564,4.9579
0.013123,4.9622
0.013123,4.9625
0.024414,4.9619
0.052948,4.9658
0.06424,4.967
0.060577,4.9683
0.074158,4.9719
0.034027,4.9725
-0.005035,4.9722
-0.018616,4.9774
-0.013733,4.9774
-0.020905,4.9814
-0.032959,4.9811
-0.033569,4.9817
-0.028534,4.9866
-0.023651,4.9863
-0.018616,4.9899
-0.016632,4.9921
-0.016327,4.9918
-0.029755,4.9963
-0.088348,4.9963
-0.054321,4.9979
0.234833,5.0012
0.970612,5.0015
0.847931,5.0061
0.072937,5.0067
-0.396271,5.0061
-0.43457,5.0116
-0.216064,5.011
-0.120392,5.0165
-0.083923,5.0156
-0.062714,5.0156
-0.048218,5.0208
-0.03952,5.0208
-0.025787,5.0208
-0.016327,5.0256
-0.006866,5.025
0.005646,5.0259
0.015869,5.0311
0.02533,5.0299
0.032654,5.0305
0.044556,5.0357
0.05661,5.0354
0.071259,5.0357
0.088348,5.0354
0.111847,5.0354
0.136414,5.0357
0.158234,5.0354
0.171661,5.0354
0.183868,5.0354
0.179291,5.0351
0.152435,5.0305
0.088806,5.0302
0.00351,5.0302
-0.083008,5.025
-0.149536,5.0253
-0.191956,5.0201
-0.216675,5.0208
-0.224304,5.0153
-0.215149,5.0113
-0.204468,5.0107
-0.187531,5.0061
-0.170746,5.0064
-0.151978,5.0015
-0.135956,4.996
-0.11795,4.9957
-0.101776,4.9918
-0.087128,4.9911
-0.071564,4.9872
-0.065308,4.9869
-0.056458,4.9814
-0.048218,4.982
-0.041046,4.9765
-0.038452,4.9774
-0.031281,4.9713
-0.02655,4.9716
-0.026245,4.9725
-0.026093,4.967
-0.023499,4.9667
-0.02121,4.9673
-0.018616,4.9677
-0.016327,4.9628
-0.018768,4.9619
-0.016022,4.9628
-0.009155,4.9625
-0.007324,4.9625
-0.006409,4.9622
-0.003662,4.9622
-0.003662,4.9619
-0.001678,4.9625
-0.001373,4.9622
0.000763,4.9667
0.00351,4.9677
0.003357,4.967
0.005493,4.9677
0.005646,4.9719
0.008087,4.9719
0.010834,4.9719
0.010529,4.9716
0.01297,4.9771
0.015717,4.9774
0.015564,4.9811
0.013123,4.9817
0.015259,4.982
0.013123,4.9863
0.013123,4.9869
0.01297,4.9918
0.01297,4.9918
0.010834,4.9915
0.010223,4.9963
0.010681,4.9963
0.010834,5.0009
0.010529,5.0012
0.010681,5.0064
0.012817,5.0061
0.013123,5.011
0.015564,5.014
0.025482,5.0153
0.054016,5.0204
0.052032,5.0208
0.062561,5.0262
0.061951,5.0253
0.01709,5.0311
-0.008698,5.0351
-0.015106,5.0357
-0.016479,5.0403
-0.02594,5.0436
-0.029755,5.0452
-0.028381,5.0497
-0.023804,5.05
-0.02121,5.0549
-0.016327,5.0595
-0.011444,5.0635
-0.013885,5.0647
-0.05127,5.0696
-0.094452,5.0742
0.003967,5.0745
0.456543,5.079
1.112366,5.083
0.566711,5.0885
-0.136414,5.0891
-0.446472,5.0934
-0.391846,5.0983
-0.220947,5.0977
-0.127716,5.1031
-0.090027,5.1083
-0.067596,5.108
-0.050812,5.1126
-0.037994,5.1141
-0.028534,5.1172
-0.019073,5.1227
-0.009308,5.1233
0.0,5.1273
0.010681,5.1324
0.015259,5.1324
0.027313,5.137
0.037689,5.1416
0.049438,5.1422
0.065308,5.1471
0.083466,5.1471
0.10437,5.152
0.127563,5.1569
0.147247,5.1566
0.166321,5.1602
0.176544,5.1611
0.174255,5.1614
0.152435,5.1657
0.093536,5.1666
0.00824,5.1709
-0.07843,5.1712
-0.144653,5.1743
-0.181274,5.1761
-0.202179,5.1761
-0.207062,5.1813
-0.200958,5.1855
-0.187836,5.1859
-0.171356,5.191
-0.151825,5.192
-0.13504,5.1956
-0.12146,5.2008
-0.104523,5.2054
-0.092163,5.2106
-0.079651,5.2158
-0.072479,5.2237
-0.060425,5.2295
-0.052948,5.235
-0.04837,5.2448
-0.040588,5.249
-0.033875,5.2594
-0.028381,5.2673
-0.026093,5.274
-0.026093,5.2835
-0.023651,5.2939
-0.021362,5.303
-0.021362,5.3125
-0.019073,5.3223
-0.016327,5.3323
-0.011444,5.3418
-0.009003,5.3516
-0.01358,5.3616
-0.011597,5.376
-0.006256,5.3864
-0.006409,5.3973
-0.003662,5.4102
-0.001526,5.4251
-0.001678,5.4352
0.000458,5.4492
0.005646,5.4639
0.005798,5.4773
0.00824,5.4901
0.010681,5.5051
0.005951,5.5173
0.005646,5.5328
0.00824,5.5484
0.010529,5.5627
0.010834,5.5801
0.005951,5.5957
0.003052,5.6104
0.00824,5.6247
0.008392,5.6409
0.008087,5.6583
0.008087,5.6738
0.01297,5.6924
0.010834,5.7074
0.010681,5.7233
0.013123,5.7416
0.010681,5.7565
0.010376,5.7748
0.016937,5.7904
0.026855,5.8057
0.046844,5.8249
0.047913,5.8398
0.057831,5.8578
0.062866,5.8737
0.019073,5.8893
-0.010986,5.9045
-0.016327,5.9229
-0.006409,5.9372
-0.018463,5.9528
-0.026093,5.9662
-0.02594,5.9814
-0.023499,5.9964
-0.016785,6.0117
-0.016174,6.0254
-0.013275,6.0403
-0.010986,6.0547
-0.04303,6.0693
-0.086975,6.0843
-0.015564,6.0968
0.36377,6.1087
0.971069,6.1227
0.968933,6.1377
0.119476,6.1469
-0.331726,6.1621
-0.426941,6.1728
-0.284576,6.1856
-0.15274,6.1963
-0.101013,6.2109
-0.071259,6.2207
-0.055542,6.2299
-0.043335,6.243
-0.036011,6.254
-0.026245,6.2643
-0.021362,6.2741
-0.011444,6.2845
-0.00412,6.2943
0.007172,6.3031
0.017395,6.3113
0.027924,6.3184
0.031433,6.3275
0.039825,6.3339
0.056915,6.3431
0.078583,6.347
0.098267,6.3568
0.119324,6.3617
0.136566,6.3672
0.144501,6.3754
0.144958,6.3815
0.131073,6.3864
0.08606,6.3913
0.017395,6.3962
-0.056152,6.4014
-0.113068,6.4056
-0.155487,6.4102
-0.176392,6.412
-0.182648,6.4154
-0.180206,6.4206
-0.165405,6.4252
-0.150757,6.4301
-0.13443,6.4307
-0.119171,6.4346
-0.10437,6.4398
-0.093079,6.4453
-0.082245,6.445
-0.074921,6.4496
-0.065002,6.4536
-0.057678,6.4557
-0.05127,6.46
-0.050354,6.4651
-0.050507,6.4645
-0.043488,6.4694
-0.037842,6.4743
-0.031128,6.4734
-0.028381,6.4783
-0.026398,6.4841
-0.021057,6.4841
-0.018768,6.4893
-0.018616,6.4893
-0.014191,6.4938
-0.014038,6.4981
-0.011292,6.4981
-0.004272,6.503
-0.00412,6.5042
0.000763,6.5079
0.003357,6.5131
0.003357,6.5137
0.00351,6.5176
0.004425,6.5216
0.003204,6.5231
0.008087,6.5283
0.015564,6.528
0.015411,6.5329
0.013123,6.5375
0.011902,6.5381
0.015564,6.5421
0.01297,6.5472
0.013275,6.5479
0.018158,6.5521
0.015869,6.5576
0.017853,6.5576
0.017853,6.5625
0.0177,6.5671
0.02533,6.5714
0.030365,6.5717
0.043335,6.5759
0.061646,6.5808
0.056763,6.5823
0.073853,6.5863
0.04303,6.5915
0.006561,6.5927
-0.006409,6.5958
0.003204,6.6003
-0.005493,6.6064
-0.012665,6.6055
-0.016174,6.6113
-0.011292,6.6156
-0.010071,6.6165
-0.003967,6.6202
-0.006561,6.6248
-0.004272,6.6293
-0.019836,6.6309
-0.074768,6.6348
-0.022278,6.6397
0.240936,6.64
0.911865,6.6446
0.791321,6.6507
0.178528,6.6531
-0.288849,6.6547
-0.425873,6.6592
-0.317993,6.6641
-0.172882,6.665
-0.105743,6.6693
-0.074615,6.6745
-0.054321,6.6739
-0.041962,6.6788
-0.031128,6.6846
-0.02121,6.6882
-0.009003,6.6882
-0.003815,6.6943
0.003357,6.698
0.013275,6.7001
0.020447,6.7044
0.025635,6.7084
0.037689,6.7123
0.050812,6.713
0.066681,6.7184
0.08316,6.7175
0.099945,6.7224
0.125427,6.723
0.141602,6.7276
0.147247,6.7282
0.149994,6.7279
0.136261,6.7328
0.099335,6.7325
0.039062,6.7328
-0.038452,6.7383
-0.100708,6.7377
-0.140991,6.7377
-0.16449,6.7377
-0.170135,6.7377
-0.162964,6.7377
-0.156708,6.7419
-0.146179,6.7426
-0.127258,6.7419
-0.110168,6.7429
-0.095825,6.7419
-0.084686,6.7429
-0.07782,6.7426
-0.067444,6.7429
-0.058136,6.7419
-0.046997,6.748
-0.040894,6.7471
-0.0383,6.7471
-0.035553,6.7471
-0.030823,6.7471
-0.026093,6.7474
-0.020905,6.7517
-0.022125,6.752
-0.018616,6.7523
-0.018616,6.752
-0.018921,6.7532
-0.011292,6.7575
-0.011444,6.7572
-0.009308,6.7569
-0.006409,6.7618
-0.001221,6.7627
-0.001831,6.7618
-0.003815,6.7627
0.000916,6.7664
0.000916,6.7664
0.003357,6.7676
0.005646,6.7667
0.005646,6.7728
0.005493,6.7715
0.005646,6.7715
0.005493,6.7761
0.005341,6.777
0.008392,6.7764
0.010376,6.781
0.010681,6.7816
0.00824,6.7813
0.00824,6.7816
0.010834,6.7868
0.01297,6.7862
0.015717,6.7865
0.022583,6.7914
0.048828,6.7911
0.049591,6.7914
0.063324,6.7926
0.060425,6.7966
0.021515,6.7966
-0.00885,6.7969
-0.012512,6.8008
-0.009003,6.8011
-0.018921,6.8011
-0.023804,6.8054
-0.02594,6.806
-0.021057,6.8054
-0.016327,6.8066
-0.009155,6.8106
-0.006409,6.8109
-0.011444,6.8109
-0.054321,6.8158
-0.072632,6.8152
0.038605,6.8155
0.450439,6.8158
1.009674,6.8207
0.527954,6.8213
-0.055389,6.8204
-0.403748,6.8253
-0.407104,6.8256
-0.25177,6.8253
-0.138092,6.8262
-0.095367,6.8301
-0.070801,6.8304
-0.050659,6.8298
-0.037994,6.8301
-0.029297,6.8359
-0.021057,6.835
-0.011597,6.835
-0.002594,6.835
0.00824,6.8402
0.010681,6.8402
0.018005,6.8408
0.025024,6.8399
0.039062,6.8405
0.05188,6.8408
0.069427,6.8399
0.09491,6.8402
0.113373,6.8402
0.133972,6.8399
0.14389,6.8399
0.1474,6.8405
0.135956,6.8402
0.097351,6.8365
0.041504,6.8344
-0.020142,6.8359
-0.093842,6.8304
-0.149841,6.8301
-0.18158,6.8289
-0.194855,6.8253
-0.194702,6.821
-0.185852,6.8201
-0.168915,6.8152
-0.150909,6.8158
-0.133514,6.8109
-0.116272,6.8115
-0.102234,6.8063
-0.089874,6.8018
-0.077667,6.8008
-0.067596,6.796
-0.056305,6.7947
-0.050507,6.7908
-0.045624,6.7871
-0.040588,6.7865
-0.038147,6.7813
-0.03067,6.781
-0.02594,6.7764
-0.023804,6.7767
-0.02594,6.7722
-0.024567,6.7722
-0.018463,6.7673
-0.016174,6.7664
-0.016327,6.7657
-0.011444,6.7618
-0.008545,6.7618
-0.009003,6.7572
-0.003967,6.7563
-0.006104,6.7569
-0.003815,6.7569
-0.001678,6.7523
-0.00412,6.7517
0.000916,6.7517
0.003052,6.752
-0.001678,6.7523
0.003204,6.7526
0.003357,6.7523
0.006104,6.7517
0.007324,6.7471
0.008087,6.7474
0.010834,6.7474
0.013123,6.7468
0.010834,6.7471
0.013275,6.7471
0.015717,6.7474
0.015411,6.7474
0.012817,6.7471
0.015869,6.7474
0.017853,6.7471
0.023041,6.748
0.037231,6.752
0.056763,6.752
0.051575,6.7526
0.073547,6.7529
0.055084,6.752
0.011444,6.7523
-0.00885,6.7526
-0.006561,6.752
-0.009003,6.752
-0.018921,6.7526
-0.023651,6.7517
-0.020905,6.7523
-0.018768,6.7523
-0.016479,6.7523
-0.011444,6.7529
-0.00885,6.7523
-0.012817,6.7529
-0.066681,6.7523
-0.061188,6.7523
0.095367,6.752
0.616455,6.7523
1.00296,6.7578
0.368347,6.7572
-0.200958,6.7575
-0.43808,6.7578
-0.368652,6.7578
-0.209045,6.752
-0.11795,6.752
-0.079956,6.752
-0.060425,6.752
-0.045624,6.7517
-0.035706,6.7526
-0.023651,6.7526
-0.00885,6.7517
-0.001373,6.7526
0.00473,6.7526
0.01236,6.7526
0.022888,6.7471
0.034332,6.7477
0.04425,6.7465
0.05722,6.7474
0.073853,6.7468
0.095062,6.7432
0.114288,6.7429
0.136261,6.7383
0.156555,6.7368
0.166931,6.7371
0.166473,6.7328
0.150604,6.7334
0.106812,6.7273
0.03006,6.7236
-0.053253,6.7233
-0.125275,6.7181
-0.174408,6.7139
-0.206451,6.7139
-0.216675,6.7084
-0.214233,6.7032
-0.199738,6.698
-0.182953,6.6943
-0.166626,6.6907
-0.148315,6.6888
-0.128937,6.6837
-0.114136,6.6782
-0.097198,6.673
-0.084534,6.665
-0.072327,6.6605
-0.060425,6.6559
-0.050964,6.6495
-0.045319,6.6452
-0.041046,6.6403
-0.033722,6.6351
-0.029297,6.6302
-0.023956,6.6257
-0.016937,6.6202
-0.015869,6.6171
-0.013885,6.6153
-0.013733,6.611
-0.013885,6.6058
-0.01358,6.6019
-0.009003,6.5958
-0.006256,6.5912
-0.006409,6.5866
-0.006409,6.586
-0.001831,6.5814
0.000916,6.5768
0.003204,6.5723
0.005798,6.572
0.008545,6.5665
0.008392,6.5619
0.01297,6.5567
0.015717,6.554
0.015869,6.5521
0.015411,6.5482
0.015411,6.5417
0.018005,6.5378
0.018158,6.5384
0.018005,6.532
0.020447,6.5277
0.020294,6.5225
0.020599,6.5228
0.020447,6.5182
0.020447,6.5143
0.020447,6.5079
0.018311,6.5085
0.020142,6.5042
0.020294,6.4981
0.018005,6.4932
0.017853,6.489
0.017853,6.4838
0.0177,6.4795
0.015717,6.478
0.023041,6.474
0.04837,6.4685
0.059052,6.4639
0.056763,6.4584
0.070038,6.4514
0.031281,6.4444
-0.001526,6.4398
-0.016174,6.4346
-0.00885,6.4301
-0.017853,6.4203
-0.023651,6.416
-0.026093,6.4111
-0.020905,6.4008
-0.018616,6.3965
-0.014038,6.3867
-0.009766,6.3809
-0.006866,6.3715
-0.013733,6.3666
-0.066986,6.3568
-0.03891,6.3522
0.18631,6.3419
0.830994,6.3324
0.948944,6.3275
0.195923,6.3187
-0.335541,6.312
-0.436249,6.3034
-0.299225,6.2933
-0.153046,6.2878
-0.097809,6.2793
-0.073242,6.2686
-0.056305,6.2601
-0.040436,6.2537
-0.028229,6.2445
-0.018768,6.235
-0.009308,6.2256
0.002289,6.2161
0.010529,6.2061
0.020447,6.1963
0.029144,6.1868
0.03952,6.1765
0.051727,6.1667
0.065613,6.1569
0.081024,6.1432
0.107574,6.1328
0.132599,6.1185
0.154724,6.1032
0.171814,6.0904
0.179291,6.0751
0.175323,6.059
0.155792,6.0449
0.102844,6.0291
0.036316,6.0144
-0.05188,5.9964
-0.126953,5.9814
-0.182648,5.9625
-0.216675,5.9467
-0.231323,5.9293
-0.22995,5.9134
-0.217743,5.8975
-0.202026,5.8792
-0.182495,5.8643
-0.160217,5.8487
-0.14328,5.831
-0.128784,5.8151
-0.111694,5.8005
-0.094604,5.7864
-0.079803,5.7715
-0.065308,5.7602
-0.055847,5.7465
-0.050659,5.7327
-0.043182,5.7233
-0.039062,5.7083
-0.035553,5.6992
-0.030823,5.6888
-0.025635,5.6784
-0.02121,5.6689
-0.02121,5.6601
-0.02121,5.6491
-0.02121,5.6396
-0.021057,5.6348
-0.016174,5.625
-0.011597,5.6201
-0.011444,5.6104
-0.011139,5.6055
-0.008392,5.6012
-0.005951,5.5957
-0.006561,5.5911
-0.006714,5.5862
-0.00412,5.5811
-0.00412,5.5762
-0.001221,5.5713
0.000458,5.5719
0.003357,5.5664
0.003204,5.5627
0.005798,5.5618
0.005646,5.5591
0.005798,5.5563
0.005798,5.5566
0.00824,5.5521
0.007935,5.5524
0.008392,5.5521
0.010529,5.5518
0.010834,5.5469
0.010834,5.5472
0.013275,5.5469
0.013123,5.5469
0.012817,5.5469
0.012817,5.5472
0.01297,5.5469
0.010681,5.5472
0.012665,5.5475
0.013123,5.5469
0.013275,5.5472
0.013275,5.5469
0.013275,5.546
0.015259,5.5466
0.015869,5.5469
0.022125,5.5469
0.043945,5.5475
0.064087,5.5469
0.059204,5.5463
0.076294,5.5475
0.036316,5.5472
-0.001373,5.5469
-0.016632,5.5518
-0.013885,5.5521
-0.018311,5.5521
-0.028076,5.5521
-0.030975,5.5518
-0.028381,5.5518
-0.026093,5.5518
-0.018616,5.5521
-0.014038,5.5518
-0.01358,5.5515
-0.015564,5.5518
-0.069275,5.5521
-0.068665,5.5472
0.118713,5.5469
0.71991,5.5472
1.045227,5.5469
0.296783,5.5466
-0.31189,5.5475
-0.454712,5.5469
-0.326996,5.5472
-0.169678,5.5423
-0.105286,5.5429
-0.077362,5.5423
-0.057526,5.5423
-0.045319,5.5371
-0.033112,5.5371
-0.023804,5.5377
-0.013428,5.5325
-0.001678,5.5322
0.00824,5.5276
0.0177,5.5267
0.027466,5.5225
0.037689,5.5173
0.049438,5.5176
0.064087,5.5081
0.081177,5.5029
0.102234,5.498
0.125427,5.4892
0.149841,5.4785
0.167084,5.4675
0.176849,5.4547
0.179138,5.4449
0.167084,5.4306
0.126343,5.4169
0.053864,5.4053
-0.036163,5.3912
-0.117035,5.3757
-0.177002,5.3619
-0.213776,5.347
-0.228882,5.3323
-0.229034,5.3183
-0.219116,5.3033
-0.202332,5.2887
-0.184937,5.2744
-0.166473,5.2591
-0.149231,5.2454
-0.131073,5.2338
-0.115051,5.22
-0.096588,5.2063
-0.082245,5.1959
-0.071106,5.1816
-0.063782,5.1712
-0.052643,5.1611
-0.043335,5.1486
-0.038147,5.1392
-0.033417,5.1285
-0.028381,5.1221
-0.028534,5.112
-0.026093,5.1028
-0.023499,5.0977
-0.023499,5.0882
-0.02121,5.0836
-0.018768,5.0748
-0.013885,5.0696
-0.013885,5.0644
-0.011597,5.0595
-0.00885,5.0546
-0.006104,5.05
-0.006409,5.0452
-0.001526,5.0406
-0.001526,5.04
0.003052,5.0354
0.003204,5.0354
0.00351,5.0302
0.005951,5.0308
0.008545,5.0259
0.010834,5.0259
0.010681,5.0256
0.008087,5.0256
0.010681,5.0253
0.010681,5.025
0.010681,5.0259
0.010529,5.0256
0.013428,5.0259
0.010834,5.0259
0.01297,5.0262
0.01297,5.0256
0.015411,5.0256
0.01709,5.0262
0.018158,5.0253
0.0177,5.0302
0.015106,5.0305
0.013733,5.0305
0.011597,5.0302
0.00824,5.0299
0.010834,5.0354
0.010529,5.0363
0.010834,5.0351
0.015411,5.0397
0.026855,5.04
0.058899,5.04
0.054321,5.0406
0.058441,5.0449
0.055237,5.0446
0.00885,5.0455
-0.015411,5.0485
-0.018463,5.05
-0.013733,5.05
-0.023804,5.0494
-0.030823,5.0546
-0.030823,5.0546
-0.024414,5.0549
-0.021057,5.0543
-0.016022,5.0592
-0.013885,5.0595
-0.013885,5.0592
-0.036926,5.0595
-0.08728,5.0647
-0.021667,5.0647
0.336761,5.065
1.065521,5.0641
0.705566,5.0647
-0.236359,5.0693
-0.456543,5.0699
-0.358582,5.0693
-0.189667,5.0696
-0.121307,5.0702
-0.089417,5.069
-0.067596,5.0699
-0.053253,5.0702
-0.040588,5.0696
-0.029297,5.0748
-0.02121,5.0742
-0.011292,5.0745
-0.001526,5.0742
0.010834,5.0745
0.023041,5.0748
0.035095,5.0735
0.046387,5.0745
0.058899,5.0702
0.071259,5.0696
0.09079,5.0696
0.110626,5.0696
0.134125,5.0696
0.155945,5.0647
0.172119,5.0644
0.181427,5.0598
0.179138,5.0601
0.150299,5.0546
0.086975,5.05
-0.000305,5.0455
-0.088043,5.0406
-0.159912,5.0351
-0.201721,5.0308
-0.223999,5.0247
-0.228882,5.0159
-0.221558,5.0061
-0.206909,4.9963
-0.185242,4.9884
-0.166321,4.9783
-0.146027,4.9692
-0.128784,4.9588
-0.111694,4.9481
-0.096893,4.938
-0.084839,4.9274
-0.072632,4.9185
-0.062866,4.9078
-0.055237,4.8993
-0.050812,4.8895
-0.043182,4.8834
-0.035706,4.874
-0.033417,4.8645
-0.028381,4.856
-0.025787,4.8502
-0.023651,4.8404
-0.020905,4.8361
-0.02121,4.8306
-0.018768,4.8209
-0.016327,4.816
-0.013428,4.8114
-0.00885,4.8059
-0.006714,4.8013
-0.006409,4.7971
-0.006409,4.7952
-0.003967,4.7916
-0.001678,4.7867
-0.001678,4.7867
0.000763,4.7821
0.00473,4.7821
0.008087,4.7769
0.00824,4.7766
0.010529,4.7769
0.010529,4.7769
0.01297,4.7769
0.012817,4.7766
0.01297,4.7769
0.015564,4.7769
0.01297,4.7775
0.01297,4.7766
0.012817,4.7769
0.013123,4.7772
0.01297,4.7772
0.01297,4.7769
0.015259,4.7815
0.015564,4.7818
0.017853,4.7812
0.018311,4.7864
0.018463,4.7864
0.013123,4.7864
0.012817,4.7913
0.010681,4.7913
0.01297,4.7913
0.01297,4.7958
0.010986,4.7968
0.01297,4.7961
0.015411,4.8013
0.027161,4.801
0.058746,4.8065
0.054321,4.8059
0.066681,4.8062
0.057526,4.8111
0.015717,4.8111
-0.010529,4.8157
-0.014038,4.816
-0.013733,4.8163
-0.023651,4.8206
-0.028381,4.8206
-0.028229,4.8254
-0.021973,4.8254
-0.018616,4.826
-0.016174,4.8303
-0.01358,4.8306
-0.011139,4.8306
-0.046539,4.8358
-0.094147,4.8352
-0.009613,4.8398
0.419006,4.8404
1.113892,4.8401
0.615997,4.8456
-0.106812,4.8453
-0.438995,4.8495
-0.39444,4.8511
-0.22644,4.8505
-0.127411,4.855
-0.087891,4.8547
-0.065308,4.855
-0.050354,4.8593
-0.039215,4.8596
-0.028381,4.8593
-0.018768,4.8654
-0.007172,4.8645
0.000763,4.8648
0.010376,4.8691
0.020294,4.8697
0.027771,4.8694
0.037537,4.8743
0.046844,4.8743
0.056763,4.8746
0.075378,4.8743
0.098267,4.8743
0.124512,4.8746
0.149689,4.8743
0.166779,4.8743
0.178986,4.8697
0.182343,4.8688
0.162048,4.8691
0.106506,4.8645
0.022278,4.8645
-0.064392,4.8596
-0.137482,4.8593
-0.187531,4.8547
-0.213623,4.8502
-0.218811,4.8502
-0.216522,4.8456
-0.202026,4.8413
-0.187378,4.8401
-0.171509,4.8358
-0.150604,4.8309
-0.131989,4.8303
-0.116577,4.8251
-0.10025,4.8209
-0.087433,4.8199
-0.075684,4.8163
-0.068817,4.8132
-0.058594,4.8111
-0.052795,4.808
-0.045776,4.8059
-0.038147,4.8065
-0.035858,4.8016
-0.030975,4.801
-0.02655,4.8007
-0.02121,4.7958
-0.018463,4.7964
-0.016632,4.7968
-0.014191,4.7971
-0.011292,4.7958
-0.011444,4.7961
-0.009003,4.7961
-0.006714,4.7961
-0.003815,4.7974
-0.003662,4.7968
-0.00412,4.7964
-0.001678,4.7968
0.000916,4.7964
0.00351,4.7964
0.003357,4.8007
0.003204,4.801
0.005493,4.8004
0.008087,4.8013
0.007935,4.8062
0.007935,4.8062
0.010834,4.8111
0.010681,4.8108
0.010681,4.8157
0.008087,4.8154
0.010681,4.8209
0.007935,4.8203
0.010834,4.8257
0.008698,4.8303
0.00824,4.83
0.010681,4.8352
0.010681,4.8401
0.010529,4.8453
0.016022,4.8492
0.013275,4.8508
0.012817,4.855
0.015564,4.8608
0.013885,4.8672
0.015411,4.8749
0.015259,4.8792
0.013275,4.8837
0.01358,4.8889
0.023346,4.8962
0.048523,4.9045
0.056915,4.9084
0.051727,4.9182
0.064392,4.9231
0.025482,4.9286
-0.00885,4.9374
-0.023651,4.9435
-0.011597,4.9518
-0.016632,4.9619
-0.026093,4.9673
-0.028381,4.9771
-0.028229,4.9823
-0.024414,4.9918
-0.018616,5.0012
-0.016022,5.007
-0.016327,5.0162
-0.022583,5.0253
-0.083923,5.0351
-0.08606,5.0406
0.118866,5.0507
0.776825,5.0592
0.986633,5.0693
0.271454,5.0793
-0.285645,5.0885
-0.458527,5.0967
-0.348969,5.1038
-0.187378,5.1129
-0.119934,5.1233
-0.085754,5.1328
-0.065308,5.1422
-0.051422,5.1517
-0.040894,5.1614
-0.028381,5.1694
-0.021057,5.1767
-0.010986,5.1862
-0.001678,5.1959
0.010834,5.2057
0.0177,5.2148
0.022888,5.2203
0.032501,5.2304
0.044708,5.2399
0.058136,5.2451
0.076294,5.2539
0.099945,5.26
0.127106,5.2686
0.148773,5.2734
0.163727,5.2829
0.169373,5.2887
0.164948,5.2924
0.135956,5.2985
0.074463,5.3079
-0.007019,5.3131
-0.082855,5.3177
-0.14267,5.3226
-0.179138,5.3281
-0.196533,5.3323
-0.199738,5.3375
-0.192261,5.3424
-0.175323,5.3519
-0.158386,5.3564
-0.143585,5.3616
-0.128632,5.3714
-0.116272,5.3766
-0.099792,5.386
-0.088196,5.3918
-0.079803,5.4001
-0.067444,5.4102
-0.058899,5.4205
-0.050659,5.4291
-0.040894,5.4398
-0.038605,5.4526
-0.035553,5.4639
-0.03067,5.477
-0.026245,5.4883
-0.024872,5.5029
-0.018463,5.5176
-0.018463,5.5322
-0.023651,5.5469
-0.021362,5.5624
-0.018921,5.5804
-0.015869,5.5954
-0.014038,5.614
-0.011139,5.6296
-0.011444,5.647
-0.011444,5.6641
-0.003967,5.6833
-0.001831,5.7019
0.001068,5.7178
0.003204,5.7379
0.003204,5.7544
0.000763,5.7718
0.005646,5.7907
0.007935,5.8096
0.010681,5.8255
0.010681,5.8453
0.007935,5.864
0.00824,5.882
0.010834,5.899
0.010834,5.918
0.010223,5.9369
0.005493,5.9525
0.008087,5.9711
0.015564,5.99
0.013123,6.0059
0.01297,6.0248
0.010681,6.0394
0.015259,6.0587
0.013275,6.0745
0.010529,6.0934
0.008698,6.1078
0.013275,6.124
0.020447,6.1423
0.036774,6.1566
0.05188,6.1716
0.04715,6.1868
0.066681,6.2018
0.036011,6.2155
-0.003967,6.2308
-0.017242,6.2454
-0.001678,6.2598
-0.00412,6.2744
-0.016174,6.2881
-0.016327,6.2982
-0.013733,6.3129
-0.012207,6.3232
-0.008698,6.3373
-0.006561,6.3477
-0.006256,6.3602
-0.015259,6.3718
-0.079041,6.3815
-0.052032,6.3919
0.160065,6.4011
0.808868,6.4111
0.880737,6.4209
0.291748,6.4307
-0.214844,6.4404
-0.433655,6.4502
-0.35614,6.4594
-0.198822,6.4697
-0.11261,6.4792
-0.082092,6.4883
-0.062866,6.4984
-0.048218,6.5067
-0.037994,6.5131
-0.030823,6.5231
-0.023651,6.5323
-0.014191,6.5372
-0.006714,6.5475
-0.000153,6.5552
0.007629,6.5616
0.015411,6.5701
0.025482,6.5765
0.034332,6.5823
0.046844,6.5906
0.059357,6.5961
0.078735,6.6006
0.098114,6.6052
0.11795,6.6113
0.131836,6.6208
0.140381,6.6251
0.137939,6.6312
0.113525,6.633
0.057373,6.6354
-0.00824,6.6406
-0.074005,6.6449
-0.125732,6.6501
-0.15564,6.6528
-0.165558,6.655
-0.165405,6.6595
-0.156555,6.6602
-0.14328,6.6647
-0.129242,6.669
-0.116577,6.669
-0.102081,6.6736
-0.08728,6.6742
-0.075836,6.6791
-0.067902,6.6797
-0.060883,6.6846
-0.052795,6.6885
-0.052643,6.6885
-0.043488,6.6934
-0.038452,6.6937
-0.033417,6.6986
-0.028381,6.6986
-0.023956,6.7035
-0.018463,6.7087
-0.018616,6.7087
-0.018768,6.713
-0.016174,6.713
-0.018311,6.7184
-0.018768,6.7227
-0.018311,6.7227
-0.011139,6.7276
-0.013885,6.7328
-0.011597,6.7328
-0.00412,6.7371
-0.003967,6.738
-0.006714,6.7422
-0.00412,6.7474
0.0,6.7471
-0.001678,6.752
0.00061,6.7572
-0.000916,6.7584
-0.001678,6.7618
0.000763,6.7657
0.003357,6.7667
0.005798,6.7719
0.007935,6.7725
0.010529,6.7767
0.010681,6.7816
0.010834,6.781
0.018005,6.7862
0.023041,6.7914
0.039215,6.7944
0.054321,6.7963
0.041962,6.8011
0.054321,6.8063
0.021057,6.8066
-0.007782,6.8109
-0.014496,6.8155
-0.001831,6.8158
-0.009003,6.8204
-0.016327,6.8259
-0.018616,6.8253
-0.013885,6.8301
-0.009613,6.8359
-0.006409,6.8356
-0.001373,6.8399
0.000916,6.8393
-0.008087,6.8448
-0.065002,6.8494
-0.03067,6.8509
0.185547,6.8549
0.819702,6.8549
0.86441,6.8597
0.242767,6.8597
-0.25238,6.8646
-0.430908,6.8643
-0.341492,6.8698
-0.18692,6.8695
-0.109863,6.8744
-0.077667,6.8747
-0.055542,6.8774
-0.043182,6.879
-0.03067,6.879
-0.021057,6.8845
-0.012054,6.8835
-0.006561,6.889
0.002594,6.8884
0.01236,6.8927
0.015717,6.8936
0.027771,6.8933
0.03952,6.8976
0.046997,6.8985
0.05661,6.8988
0.076752,6.9031
0.098267,6.9034
0.114594,6.9031
0.134277,6.9043
0.149231,6.9034
0.154419,6.9037
0.144653,6.9034
0.109253,6.9034
0.047607,6.9028
-0.029144,6.9037
-0.098724,6.9034
-0.147858,6.9034
-0.17746,6.8988
-0.187378,6.8991
-0.183716,6.8994
-0.172577,6.8936
-0.158539,6.8936
-0.143585,6.8936
-0.12619,6.8884
-0.108795,6.8887
-0.092316,6.8845
-0.079803,6.8835
-0.069885,6.8802
-0.060425,6.8793
-0.055084,6.8793
-0.045776,6.8741
-0.040741,6.8738
-0.035553,6.8695
-0.03067,6.8704
-0.028381,6.8695
-0.025635,6.8643
-0.026093,6.8646
-0.021057,6.8646
-0.021515,6.86
-0.018616,6.86
-0.016327,6.8594
-0.011597,6.8549
-0.009003,6.8552
-0.009003,6.8546
-0.008698,6.8512
-0.00885,6.85
-0.006409,6.85
-0.006256,6.8494
-0.001373,6.85
0.003204,6.8448
0.006104,6.8448
0.007935,6.8451
0.012665,6.8457
0.010529,6.8451
0.00824,6.8445
0.009766,6.8402
0.010681,6.8405
0.010529,6.8408
0.01297,6.8408
0.01297,6.8408
0.01236,6.8402
0.013123,6.835
0.017853,6.835
0.020752,6.835
0.030518,6.8359
0.054474,6.8353
0.05188,6.8359
0.063934,6.8347
0.062256,6.8295
0.013733,6.8307
-0.011597,6.8301
-0.011749,6.8298
-0.009003,6.8311
-0.020294,6.8304
-0.02594,6.8301
-0.023651,6.8259
-0.023651,6.8256
-0.018768,6.8246
-0.011444,6.8262
-0.006409,6.8256
-0.006561,6.8256
-0.042572,6.8219
-0.065765,6.821
0.04425,6.8201
0.450897,6.8204
1.052856,6.8207
0.551147,6.8164
-0.087891,6.8155
-0.417786,6.8155
-0.396423,6.8149
-0.235748,6.8106
-0.126953,6.8103
-0.086975,6.8103
-0.065308,6.806
-0.045624,6.8057
-0.035553,6.803
-0.023193,6.8008
-0.00885,6.8008
-0.001678,6.7957
0.005646,6.7953
0.01297,6.7911
0.022583,6.792
0.032654,6.7874
0.042114,6.7871
0.054626,6.7816
0.069275,6.7822
0.090332,6.7773
0.110931,6.7722
0.13504,6.7667
0.157013,6.7618
0.169525,6.7572
0.176544,6.7523
0.171509,6.7468
0.142975,6.7377
0.080261,6.7328
-0.006409,6.7227
-0.089417,6.7178
-0.152893,6.7087
-0.194702,6.6992
-0.216217,6.6891
-0.222015,6.684
-0.211792,6.6739
-0.19928,6.6644
-0.180664,6.6553
-0.162811,6.6443
-0.146027,6.6348
-0.127106,6.6257
-0.107574,6.6156
-0.092773,6.6052
-0.079346,6.5961
-0.068359,6.586
-0.063019,6.5768
-0.052948,6.5665
-0.043488,6.5573
-0.037994,6.5469
-0.028534,6.5372
-0.028687,6.5268
-0.026093,6.5176
-0.023193,6.5085
-0.020905,6.4987
-0.020447,6.488
-0.018616,6.478
-0.018311,6.4685
-0.018768,6.4587
-0.016327,6.4487
-0.013733,6.4395
-0.011444,6.4304
-0.00885,6.4209
-0.006561,6.4102
-0.003967,6.3998
-0.00412,6.3913
-0.001831,6.3809
0.003357,6.3715
0.003357,6.3617
0.00351,6.3516
0.005493,6.3419
0.008087,6.3327
0.010529,6.3242
0.010681,6.3184
0.008087,6.3083
0.007935,6.2979
0.00824,6.2878
0.010681,6.2793
0.013123,6.2738
0.013123,6.264
0.015564,6.2546
0.012817,6.2451
0.01297,6.2344
0.013123,6.2259
0.010529,6.2201
0.013275,6.21
0.01297,6.2009
0.01709,6.1911
0.026855,6.1813
0.053711,6.1734
0.066528,6.1661
0.05188,6.1566
0.062103,6.1469
0.023346,6.1383
-0.010834,6.1282
-0.016174,6.1176
-0.006409,6.1075
-0.011292,6.0983
-0.018768,6.0886
-0.021362,6.0782
-0.019073,6.0693
-0.016022,6.0593
-0.013733,6.0501
-0.011292,6.041
-0.009003,6.0306
-0.008087,6.022
-0.057373,6.0147
-0.055695,6.0062
0.121765,5.9964
0.681915,5.986
1.051483,5.9772
0.328064,5.9668
-0.29007,5.9589
-0.45639,5.9521
-0.335388,5.9424
-0.171967,5.9326
-0.104828,5.9253
-0.077667,5.9177
-0.057678,5.9082
-0.046082,5.8975
-0.036621,5.8878
-0.023804,5.8789
-0.011292,5.8691
-0.002289,5.8588
0.005341,5.8499
0.016022,5.8408
0.027161,5.8301
0.037689,5.8218
0.047302,5.8154
0.063324,5.8051
0.078278,5.7947
0.098572,5.7831
0.124664,5.7715
0.148773,5.762
0.167236,5.7486
0.18158,5.7373
0.186462,5.7233
0.174561,5.7126
0.133057,5.6985
0.059967,5.6845
-0.028381,5.6735
-0.110779,5.6595
-0.173035,5.6448
-0.208893,5.6305
-0.224152,5.6171
-0.223999,5.6067
-0.215302,5.5911
-0.202179,5.5811
-0.185547,5.5661
-0.167542,5.5536
-0.148315,5.5432
-0.129852,5.5322
-0.111237,5.5197
-0.095062,5.5084
-0.080109,5.498
-0.069885,5.4886
-0.059814,5.4785
-0.050201,5.4697
-0.045471,5.4636
-0.040588,5.4538
-0.033722,5.4446
-0.028076,5.4398
-0.023804,5.4349
-0.023651,5.4254
-0.023651,5.4205
-0.02121,5.415
-0.019073,5.4105
-0.016479,5.4056
-0.013733,5.401
-0.011444,5.3955
-0.00885,5.3909
-0.006409,5.3912
-0.003967,5.3857
-0.006256,5.3812
-0.006256,5.3809
-0.003967,5.3769
-0.003815,5.3763
-0.004272,5.3763
-0.001373,5.3714
0.001068,5.3711
0.003052,5.3714
0.003204,5.3717
0.005798,5.3714
0.005798,5.3711
0.005951,5.3717
0.00824,5.3668
0.00824,5.3665
0.007935,5.3717
0.00824,5.3714
0.010834,5.3714
0.01297,5.3711
0.013123,5.3714
0.013123,5.372
0.014648,5.3717
0.015411,5.3711
0.010681,5.3711
0.010986,5.3766
0.010681,5.3763
0.013123,5.376
0.015106,5.3763
0.015717,5.376
0.015564,5.3809
0.029449,5.3815
0.061035,5.3812
0.056,5.3815
0.058289,5.3812
0.057678,5.386
0.010834,5.3864
-0.016022,5.3864
-0.016632,5.3864
-0.016174,5.3864
-0.026245,5.3891
-0.03067,5.3912
-0.028381,5.3909
-0.023651,5.3906
-0.018921,5.3906
-0.016327,5.3909
-0.011292,5.3906
-0.011292,5.3949
-0.038147,5.3949
-0.079803,5.3949
